2002.5877 46.85 -71.26 -6.16983441833415 10.41591746125345
2002.6151 46.85 -71.26 -20.23864645882448 10.15516070712284
2002.6425 46.85 -71.26 -21.84578021324453 10.37755461669861
2002.6699 46.85 -71.26 15.43304302773016 8.66531004141376
2002.6973 46.85 -71.26 -36.77675754701031 14.12458512403708
2002.7247 46.85 -71.26 -43.79992693912746 9.90190673352202
2002.7521 46.85 -71.26 -49.07567942529506 9.03471727311398
2002.7795 46.85 -71.26 -61.88181965750945 10.28517691502696
2002.8068 46.85 -71.26 -63.29691955064413 9.39734705369965
2002.8342 46.85 -71.26 -59.83671811733029 9.20789480121919
2002.8616 46.85 -71.26 -42.99403840427115 8.86209108422287
2002.8890 46.85 -71.26 -24.13140370701086 9.37001076912108
2002.9164 46.85 -71.26 -26.70303233482489 9.67254022376861
2003.0260 46.85 -71.26 -28.41828510759565 10.77825623424157
2003.0534 46.85 -71.26 -12.00792598146903 18.98291168390270
2003.0808 46.85 -71.26 -23.41966102936787 15.65536726331228
2003.1082 46.85 -71.26 5.30142466283016 8.66897887576629
2003.1356 46.85 -71.26 13.50667207568746 7.97771784539762
2003.1630 46.85 -71.26 -27.63664238110255 8.68555917504434
2003.1904 46.85 -71.26 -8.66262716947266 10.17353250818478
2003.2178 46.85 -71.26 -19.60242025545696 8.54693019517273
2003.2452 46.85 -71.26 -6.51363326874140 8.49493774826755
2003.2726 46.85 -71.26 -30.52830809277686 8.26405009901923
2003.3000 46.85 -71.26 -0.08295539744427 8.10771303909830
2003.3274 46.85 -71.26 -15.60992234989582 10.87211968799491
2003.3548 46.85 -71.26 -8.33263149076586 12.35109521383064
2003.3822 46.85 -71.26 -5.15233998092595 10.59014576707252
2003.5192 46.85 -71.26 -57.30409994107585 12.07158930295678
2003.5466 46.85 -71.26 -42.60313848044540 13.76696013934337
2003.5740 46.85 -71.26 -39.97521682628128 16.48687898867620
2003.6014 46.85 -71.26 -28.20353404872305 13.81999369355537
2003.6288 46.85 -71.26 -20.82786959185156 12.71218586819100
2003.6562 46.85 -71.26 -23.58591118465812 13.93196324316438
2003.6836 46.85 -71.26 -77.55180508721320 13.94376423428572
2003.7110 46.85 -71.26 -69.72678406718198 10.31441848553006
2003.7384 46.85 -71.26 -52.46772630521629 13.06761103186319
2003.7658 46.85 -71.26 -43.36753763363119 11.88928213607261
2003.7932 46.85 -71.26 -34.76674536831360 13.52868836773903
2003.8205 46.85 -71.26 -12.78045246499882 14.39298710770438
2003.8479 46.85 -71.26 -17.32704338539524 12.22335069018073
2003.8753 46.85 -71.26 -15.07093961668095 13.39461958190508
2003.9027 46.85 -71.26 -20.92565489420153 11.79599126643965
2003.9301 46.85 -71.26 -2.46153012883824 12.56193266791533
2003.9575 46.85 -71.26 -3.49438333965026 14.56440989649571
2003.9849 46.85 -71.26 -2.46613686960451 13.62389565538348
2004.0123 46.85 -71.26 20.28992260772601 14.63735681839382
2004.0397 46.85 -71.26 -15.79907578117964 11.34198800784754
2004.0945 46.85 -71.26 -11.68955149362344 10.54774406790725
2004.1219 46.85 -71.26 -13.94488302870899 12.04822425445249
2004.1493 46.85 -71.26 4.82235455933685 14.34771497140441
2004.1767 46.85 -71.26 -13.53887193930198 15.73591263161950
2004.2041 46.85 -71.26 0.79245564763119 12.40021676963727
2004.2315 46.85 -71.26 -14.78618731035550 12.59984383025951
2004.2589 46.85 -71.26 -2.48352026608764 12.97490914103101
2004.2863 46.85 -71.26 12.47149983396819 13.05511012179039
2004.3137 46.85 -71.26 -4.21217234128894 12.33825510382301
2004.3411 46.85 -71.26 -22.10437614127066 13.67403343515043
2004.3685 46.85 -71.26 -39.12859529536202 12.93849576497209
2004.3959 46.85 -71.26 -66.41164854394498 11.16658111751212
2004.4233 46.85 -71.26 -71.51077114619706 10.69107598643848
2004.4507 46.85 -71.26 -37.77397983671868 9.56308276374102
2004.4781 46.85 -71.26 -41.30365329816254 10.62764876219726
2004.5055 46.85 -71.26 -37.07811705392786 10.31340284416675
2004.5329 46.85 -71.26 -31.71684388151987 9.65248554895767
2004.5603 46.85 -71.26 -16.17437285929060 10.01265179179661
2004.5877 46.85 -71.26 -20.62293714122295 10.05802109297977
2004.6151 46.85 -71.26 -28.74207738647626 11.14274851354805
2004.6425 46.85 -71.26 -39.66288862848854 9.30019923680420
2004.6699 46.85 -71.26 -2.69832995794457 9.28425592251777
2004.6973 46.85 -71.26 2.94783641953906 8.62751228385508
2004.7247 46.85 -71.26 -34.41092513260577 10.07443675960051
2004.7521 46.85 -71.26 -30.05980367415815 9.56153758528064
2004.7795 46.85 -71.26 -14.55233847861050 9.38924062260889
2004.8068 46.85 -71.26 -10.92645830710139 10.58504901492422
2004.8342 46.85 -71.26 -13.92853796777400 10.46872423038905
2004.8616 46.85 -71.26 -16.27489824419142 9.02871008720528
2004.8890 46.85 -71.26 -25.67600822106021 9.05863291074387
2004.9164 46.85 -71.26 -25.66741413545839 10.03643717282787
2004.9438 46.85 -71.26 0.49221561994986 10.85910756561334
2004.9712 46.85 -71.26 -17.90435400264026 10.16954554603596
2004.9973 46.85 -71.26 14.58646271388585 9.65784590355820
2005.0233 46.85 -71.26 -1.63558872023761 11.58555922491673
2005.0507 46.85 -71.26 -40.44177217850397 18.00794337912211
2005.0781 46.85 -71.26 9.74928040654928 13.20033721381342
2005.1055 46.85 -71.26 11.73172126901109 13.05549660947042
2005.1329 46.85 -71.26 31.17527097008454 13.38208154093829
2005.1603 46.85 -71.26 7.45031605558288 11.67889857897637
2005.1877 46.85 -71.26 40.55862976382677 11.58891112010373
2005.2151 46.85 -71.26 6.31812668651347 10.69950340532222
2005.2425 46.85 -71.26 12.73897996739552 10.47020757400608
2005.2699 46.85 -71.26 25.49985374389696 11.29269927455097
2005.2973 46.85 -71.26 21.70475739195798 12.01306477001646
2005.3247 46.85 -71.26 29.07531199816482 12.69284074245702
2005.3521 46.85 -71.26 -9.42044226859981 4.49899023673741
2005.3795 46.85 -71.26 -29.42150783445770 11.78151692590406
2005.4068 46.85 -71.26 -8.14710035379196 10.61842575673149
2005.4342 46.85 -71.26 -25.45517634825162 12.16784376232168
2005.4616 46.85 -71.26 -33.57206107645629 11.14822698035653
2005.4890 46.85 -71.26 -11.20802385593933 10.54793156844028
2005.5164 46.85 -71.26 -37.73239604325754 10.48137430402254
2005.5438 46.85 -71.26 -23.49328756567459 11.58127570024710
2005.5712 46.85 -71.26 -28.33298709136383 12.75778398164978
2005.5986 46.85 -71.26 -33.42103286900167 13.05171256172577
2005.6260 46.85 -71.26 -61.77169046350900 11.38303437525292
2005.6534 46.85 -71.26 -49.97334585254695 12.16265151799174
2005.6808 46.85 -71.26 -48.32857181396196 11.86241335128894
2005.7082 46.85 -71.26 -34.77671476577211 14.79151512999559
2005.7356 46.85 -71.26 -45.66022782685621 12.82568342132747
2005.7630 46.85 -71.26 -50.96265644993141 12.84770640206003
2005.7904 46.85 -71.26 -24.44312166744245 11.85866124013011
2005.8178 46.85 -71.26 -42.80031728802005 12.28313337030738
2005.8452 46.85 -71.26 -28.98125788959610 13.13417322921312
2005.8726 46.85 -71.26 -25.04699297803755 11.29334312290260
2005.9000 46.85 -71.26 -34.57626295317174 10.91853578930970
2005.9274 46.85 -71.26 -21.83533623900820 10.82709988060868
2005.9548 46.85 -71.26 -0.11477123735973 9.16698642802071
2005.9822 46.85 -71.26 -16.16540746854209 10.02472864300152
2006.0096 46.85 -71.26 9.64310540095222 11.48282062104712
2006.0370 46.85 -71.26 -1.12390283755637 14.83945241547474
2006.0644 46.85 -71.26 11.90826028942142 14.99765766118542
2006.0918 46.85 -71.26 9.64580908809563 15.10285303314689
2006.1192 46.85 -71.26 17.98433926988602 17.63841787601281
2006.1466 46.85 -71.26 19.60223464406896 13.43764637844560
2006.1740 46.85 -71.26 27.27953309314431 15.66543703512001
2006.2014 46.85 -71.26 19.47956939404736 11.62977638072467
2006.2288 46.85 -71.26 32.63109972285228 15.74272563759316
2006.2562 46.85 -71.26 31.83506608532845 14.88274388301599
2006.2836 46.85 -71.26 36.25984440677580 14.41221186283023
2006.3110 46.85 -71.26 -5.79205755005218 15.48657635252416
2006.3384 46.85 -71.26 -7.07910804990808 13.95694796101489
2006.3658 46.85 -71.26 25.00146529772985 15.58932747555863
2006.3932 46.85 -71.26 -40.87212349364604 15.24498367410220
2006.4205 46.85 -71.26 -44.74358098192778 15.19387820480440
2006.4479 46.85 -71.26 -12.19933046816534 16.22682340995932
2006.4753 46.85 -71.26 -15.53610320177200 16.85645786349235
2006.5027 46.85 -71.26 -0.34291321130492 17.62001241632264
2006.5301 46.85 -71.26 -25.13345997737360 21.42592158024915
2006.5575 46.85 -71.26 -13.63252635665511 16.68869334350298
2006.5849 46.85 -71.26 -26.61502245858623 17.21521519641689
2006.6123 46.85 -71.26 12.63266416303619 22.17553721710501
2006.6397 46.85 -71.26 -41.28184236292836 18.37239091318021
2006.6671 46.85 -71.26 -19.11445616260398 16.33686296917394
2006.6945 46.85 -71.26 -42.82410918983791 21.50401635307853
2006.7219 46.85 -71.26 -24.76415800585876 19.48623596021881
2006.7493 46.85 -71.26 -14.94926184015646 23.81673119218150
2006.7767 46.85 -71.26 -7.93918908043632 20.71474582743975
2006.8041 46.85 -71.26 -22.23688899386864 16.24950178472603
2006.8315 46.85 -71.26 -19.45562887684946 19.35983058705689
2006.8589 46.85 -71.26 -9.01108324518284 18.66696627880693
2006.8863 46.85 -71.26 2.49072603265758 17.68055618270100
2006.9137 46.85 -71.26 4.52084137690660 16.95623665604172
2006.9411 46.85 -71.26 -14.99387721424063 16.57278839815762
2006.9685 46.85 -71.26 -0.92327513298351 16.20801310365211
2006.9959 46.85 -71.26 -8.40677133392748 15.74590230378409
2007.0233 46.85 -71.26 -18.31207023564411 14.31547709056925
2007.0507 46.85 -71.26 -5.24838010435866 15.23074417876246
2007.0781 46.85 -71.26 -0.95567316754148 16.19250508407212
2007.1055 46.85 -71.26 -6.41433009724861 14.22912325651427
2007.1329 46.85 -71.26 -0.09015087017213 15.71679863096982
2007.1603 46.85 -71.26 -11.50504618584648 14.94735799612089
2007.1877 46.85 -71.26 -5.12499653578413 20.36707373946063
2007.2151 46.85 -71.26 -1.95231666164843 17.97791471203206
2007.2425 46.85 -71.26 8.08903756115905 17.19540794139563
2007.2699 46.85 -71.26 40.89092399051255 12.92660551886277
2007.2973 46.85 -71.26 30.96458390244766 12.11061508093551
2007.3247 46.85 -71.26 24.31638131211485 15.51036882459861
2007.3521 46.85 -71.26 -3.77345097532477 17.24607435320846
2007.3795 46.85 -71.26 -32.34035668896275 18.28802727117624
2007.4068 46.85 -71.26 -6.19794721985682 14.71773991214870
2007.4342 46.85 -71.26 -31.43822780528545 13.91486070382272
2007.4616 46.85 -71.26 -11.02259349248722 19.29964457936927
2007.4890 46.85 -71.26 -17.74306173965594 13.95680122076495
2007.5164 46.85 -71.26 -11.74516250288437 14.98943149338336
2007.5438 46.85 -71.26 -8.45804811156166 14.39014969092214
2007.5712 46.85 -71.26 -26.35477274344077 14.79613377622044
2007.5986 46.85 -71.26 -50.30024643378379 18.60990244711468
2007.6260 46.85 -71.26 -35.70154708524871 14.68199359608346
2007.6534 46.85 -71.26 -40.34910775688127 14.99883274644426
2007.6808 46.85 -71.26 -36.39403995000501 15.67393420195777
2007.7082 46.85 -71.26 -28.47015273295091 10.81625356972632
2007.7356 46.85 -71.26 -44.01146888437852 16.10846793450402
2007.7630 46.85 -71.26 -39.15232758552487 11.59194098060307
2007.7904 46.85 -71.26 -28.31402781765420 16.03482685878290
2007.8178 46.85 -71.26 -28.63328547629460 18.88612677971735
2007.8452 46.85 -71.26 -16.23549592845934 14.69244916601732
2007.8726 46.85 -71.26 -18.65908123782416 17.38903094096827
2007.9000 46.85 -71.26 6.55546640871037 18.35345355459150
2007.9274 46.85 -71.26 -0.26163596363542 18.18940860483341
2007.9548 46.85 -71.26 12.72972030939728 13.29606667058266
2007.9822 46.85 -71.26 -5.81222405529766 16.78659544482619
2008.0096 46.85 -71.26 -17.78680720004877 14.61300540067773
2008.0370 46.85 -71.26 10.88754233001102 15.26916760994482
2008.0644 46.85 -71.26 -15.59336169837631 17.98558450503624
2008.0918 46.85 -71.26 29.34612512827538 13.64050640975072
2008.1192 46.85 -71.26 0.80920990926741 16.61443896969157
2008.1466 46.85 -71.26 16.60384891062724 19.63879288136998
2008.1740 46.85 -71.26 46.37388583115664 16.94154454034081
2008.2014 46.85 -71.26 89.94154242889637 18.64604677811006
2008.2288 46.85 -71.26 43.75692893411610 20.70756384611110
2008.2562 46.85 -71.26 48.05653282761356 19.63008222797415
2008.2836 46.85 -71.26 66.03698656103489 23.66424080778097
2008.3110 46.85 -71.26 83.33611388289034 24.74377744129519
2008.3384 46.85 -71.26 23.98882820086846 18.17603025199107
2008.3658 46.85 -71.26 19.19850755708964 18.37664817941431
2008.3932 46.85 -71.26 -19.47879323713450 16.33285129805251
2008.4205 46.85 -71.26 12.27880965569201 14.27905338244919
2008.4479 46.85 -71.26 -13.08215411668995 14.76580857756058
2008.4753 46.85 -71.26 -35.38647869121694 14.17014316120514
2008.5027 46.85 -71.26 -29.56020736777136 17.53874000901639
2008.5301 46.85 -71.26 -39.50952915279626 21.69638646031281
2008.5575 46.85 -71.26 -35.85525177573999 13.67780265108103
2008.5849 46.85 -71.26 -28.49927077428984 16.25916289564099
2008.6123 46.85 -71.26 -2.96260540695447 12.97949108837602
2008.6397 46.85 -71.26 -28.89048559911214 14.48553399514441
2008.6671 46.85 -71.26 -29.00897759897787 13.75837157403284
2008.6945 46.85 -71.26 -18.72733229430812 13.24668267985711
2008.7219 46.85 -71.26 -45.44740470470428 15.71496370815677
2008.7493 46.85 -71.26 -30.37724245379207 14.05760024777873
2008.7767 46.85 -71.26 -24.54119536078961 16.88807259600883
2008.8041 46.85 -71.26 -45.22771138745492 17.03890668623030
2008.8315 46.85 -71.26 -36.78753039417992 19.11149813376019
2008.8589 46.85 -71.26 -18.91482053136927 22.35513423137699
2008.8863 46.85 -71.26 -23.25636959872795 21.43714936351991
2008.9137 46.85 -71.26 -13.66121514367173 20.49976564932244
2008.9411 46.85 -71.26 -30.98748909694216 21.12834924888355
2008.9685 46.85 -71.26 15.71703023975967 19.71127333496903
2008.9945 46.85 -71.26 0.34682140809247 16.71607681177553
2009.0205 46.85 -71.26 12.73295203676889 16.60221007668521
2009.0479 46.85 -71.26 21.48534960404359 16.60923673364665
2009.0753 46.85 -71.26 16.82942009717932 15.65145133178937
2009.1027 46.85 -71.26 10.21136575154545 19.90452026227611
2009.1301 46.85 -71.26 30.99715185733242 15.50487136806062
2009.1575 46.85 -71.26 33.84135157260898 15.66025611731271
2009.1849 46.85 -71.26 38.95988081304696 18.72229647290136
2009.2123 46.85 -71.26 27.10335378900077 15.36504874029822
2009.2397 46.85 -71.26 21.26138635249146 17.93625662660902
2009.2671 46.85 -71.26 22.64210220729417 14.83078845320668
2009.2945 46.85 -71.26 21.24694453448972 15.28347261441358
2009.3219 46.85 -71.26 8.23043224538478 15.90825153382917
2009.3493 46.85 -71.26 -21.67523824842119 14.46142090298172
2009.3767 46.85 -71.26 -37.28367310350244 15.23688447835080
2009.4041 46.85 -71.26 -17.92942054656292 13.13263484843913
2009.4315 46.85 -71.26 -12.60358497960062 15.52976639394617
2009.4589 46.85 -71.26 -33.73462012258907 12.71820336494580
2009.4863 46.85 -71.26 8.62051980361887 14.15682809650587
2009.5137 46.85 -71.26 -1.63663480717983 13.26854423889167
2009.5411 46.85 -71.26 -14.16861969729299 16.63944530289031
2009.5685 46.85 -71.26 -6.44590868765283 17.86105004459378
2009.5959 46.85 -71.26 2.98986760024579 15.47815345298119
2009.6233 46.85 -71.26 -6.55563290714805 16.43988876390948
2009.6507 46.85 -71.26 -14.90583607345487 15.86265838293569
2009.6781 46.85 -71.26 -30.45036101599071 17.18514568486715
2009.7055 46.85 -71.26 -13.60737164537463 18.06566366752882
2009.7329 46.85 -71.26 -36.38456719311075 17.23238274493317
2009.7603 46.85 -71.26 -4.38213764005804 19.73166625079556
2009.7877 46.85 -71.26 31.20268032809304 18.14931586593239
2009.8151 46.85 -71.26 -24.73576347065635 19.71477313413397
2009.8425 46.85 -71.26 3.87388612859063 17.74461256409019
2009.8699 46.85 -71.26 -11.57095752118897 16.86142655988719
2009.8973 46.85 -71.26 -12.89694457382994 15.67420484890414
2009.9247 46.85 -71.26 16.40803320006776 15.20031895533540
2009.9521 46.85 -71.26 -28.83676966785998 14.40898057231849
2009.9795 46.85 -71.26 -13.35521677031481 14.82445625635707
2010.0068 46.85 -71.26 4.76157156241828 19.35711458493164
2010.0342 46.85 -71.26 3.48947128002007 14.63896154835236
2010.0616 46.85 -71.26 1.23216361684716 15.12451927604859
2010.0890 46.85 -71.26 0.90097830259201 18.59917155044769
2010.1164 46.85 -71.26 14.93257557718407 19.23625898500909
2010.1438 46.85 -71.26 11.05633490294503 18.18858721233480
2010.1712 46.85 -71.26 21.96754806372528 17.33811594340122
2010.1986 46.85 -71.26 5.49243611835892 16.59611433126496
2010.2260 46.85 -71.26 -5.32912635492584 18.24053664848307
2010.2534 46.85 -71.26 -3.85330798420769 18.73327678176933
2010.2808 46.85 -71.26 9.86031494819597 14.07168432111347
2010.3082 46.85 -71.26 13.19361300459062 14.90335803581083
2010.3356 46.85 -71.26 41.50940182225806 13.16063857287876
2010.3630 46.85 -71.26 18.84031081487732 14.13245215935634
2010.3904 46.85 -71.26 6.94884939465288 14.30123997403988
2010.4178 46.85 -71.26 -15.90344439849478 15.14117078180592
2010.4452 46.85 -71.26 6.34563284768969 13.13525382984342
2010.4726 46.85 -71.26 -24.55875568274346 11.65142182446285
2010.5000 46.85 -71.26 0.63349001777772 13.49351911402122
2010.5274 46.85 -71.26 -4.55203706670865 22.59514987599244
2010.5548 46.85 -71.26 -28.24034265967303 13.97470064506652
2010.5822 46.85 -71.26 -33.90948887341207 12.49233442683013
2010.6096 46.85 -71.26 -42.29072550147458 16.75333366585316
2010.6370 46.85 -71.26 -52.77782278625536 14.71077321809184
2010.6644 46.85 -71.26 -45.77896696624133 13.64563557539420
2010.6918 46.85 -71.26 -47.94244202717388 16.87093841883750
2010.7192 46.85 -71.26 -55.73849193042132 15.63344478209081
2010.7466 46.85 -71.26 16.42904725243350 18.53281950037816
2010.7740 46.85 -71.26 -33.26937150830221 14.42566127717876
2010.8014 46.85 -71.26 -9.20881190564365 13.83338704901607
2010.8288 46.85 -71.26 1.48105615149037 16.09020687300679
2010.8562 46.85 -71.26 7.71660499938013 15.71271440344415
2010.8836 46.85 -71.26 10.46475748011135 14.29525609709200
2010.9110 46.85 -71.26 11.71864523546746 15.92877878739783
2010.9384 46.85 -71.26 36.05483616525286 16.63139679761991
2010.9658 46.85 -71.26 8.04930938472579 18.47991690682240
2010.9932 46.85 -71.26 12.49128122172902 13.48852350457010
2011.1027 46.85 -71.26 17.88142857333709 13.47383585128466
2011.1301 46.85 -71.26 36.15656612022904 21.95736385487657
2011.1575 46.85 -71.26 15.58527432526921 14.08500315347013
2011.1849 46.85 -71.26 2.35136864744780 10.76060148385423
2011.2123 46.85 -71.26 32.13686560553948 18.62604895824319
2011.2397 46.85 -71.26 71.15293605089977 19.58825948162767
2011.2671 46.85 -71.26 13.50575235250775 15.44984169680682
2011.2945 46.85 -71.26 23.33077195216842 18.39370186553747
2011.3219 46.85 -71.26 48.73209451474710 17.15051403172410
2011.3493 46.85 -71.26 38.66663938836386 15.11459347308547
2011.3767 46.85 -71.26 37.94443086556510 18.05297079794208
2011.4041 46.85 -71.26 27.55452038006549 15.54383545053106
2011.4315 46.85 -71.26 -2.72639585465608 15.29121078295151
2011.5137 46.85 -71.26 3.18078810072626 13.95660241587648
2011.5411 46.85 -71.26 -12.22769941166163 15.15181088126317
2011.5685 46.85 -71.26 -3.69441358497366 14.62671956463064
2011.5959 46.85 -71.26 -9.20546100051932 15.86844670922818
2011.6233 46.85 -71.26 10.57275019755575 15.73488083220617
2011.6507 46.85 -71.26 -25.06020585883790 19.22810747932419
2011.6781 46.85 -71.26 -6.69004696756909 17.82157632871026
2011.7055 46.85 -71.26 -2.63927032340990 17.91468387137295
2011.7329 46.85 -71.26 -7.28798138088719 21.05547816856629
2011.7603 46.85 -71.26 -13.31831414229633 17.84421854790901
2011.7877 46.85 -71.26 -3.28562654853779 19.11801660141687
2011.8151 46.85 -71.26 8.19785694148998 18.66340142411694
2011.8425 46.85 -71.26 -15.52742248730687 20.50663691496691
2011.8699 46.85 -71.26 2.76464009218227 18.94885219849045
2011.9521 46.85 -71.26 8.75700006458927 11.68581838199943
2011.9795 46.85 -71.26 -18.89372761336352 16.09067173491248
2012.0068 46.85 -71.26 -11.52971680165814 14.79794429077818
2012.0342 46.85 -71.26 -0.71430337948218 17.91578282393819
2012.0616 46.85 -71.26 28.02064323713470 15.48811220435046
2012.0890 46.85 -71.26 17.22140276968699 15.21645252579206
2012.1164 46.85 -71.26 26.43652999423320 14.77094591492702
2012.1438 46.85 -71.26 60.56728718911061 15.32140921331989
2012.1712 46.85 -71.26 50.03820968610533 14.39440807586152
2012.1986 46.85 -71.26 56.94252488705419 12.91415727203775
2012.2260 46.85 -71.26 52.64755912373500 13.34654098625544
2012.2534 46.85 -71.26 29.04268734314509 12.95890662068336
2012.2808 46.85 -71.26 41.07871275381591 12.01765222767394
2012.3082 46.85 -71.26 29.89054086242384 13.92988328780503
2012.3904 46.85 -71.26 2.36129063659527 14.20514712510548
2012.4178 46.85 -71.26 12.52918709977976 10.88923790325317
2012.4452 46.85 -71.26 -13.08591535898536 10.70586670041416
2012.4726 46.85 -71.26 -10.87928657695801 11.69101896173296
2012.5000 46.85 -71.26 11.77478301102036 11.01829155800600
2012.5274 46.85 -71.26 3.51591629248710 11.80395986024619
2012.5548 46.85 -71.26 -20.03014257624548 11.80882224752186
2012.5822 46.85 -71.26 -37.08203952381592 12.66751359711495
2012.6096 46.85 -71.26 -21.57241021816406 12.63166476171275
2012.6370 46.85 -71.26 -19.92116673915699 11.52324004867569
2012.6644 46.85 -71.26 -17.29988492262524 12.77666047203960
2012.6918 46.85 -71.26 -16.83828624063265 13.22624450847097
2012.7192 46.85 -71.26 -48.15041922931130 16.34460468938547
2012.7466 46.85 -71.26 -12.24515171614732 10.82228742129534
2012.8562 46.85 -71.26 -15.66898497701145 16.78004037174543
2012.8836 46.85 -71.26 3.31572265486350 15.87005403860569
2012.9110 46.85 -71.26 3.39166080547663 14.97879931933369
2012.9384 46.85 -71.26 -11.92285775830034 14.11610339550636
2012.9658 46.85 -71.26 -1.90205433595743 16.33196830211045
2012.9918 46.85 -71.26 73.60031613494625 7.57719544988886
2013.0178 46.85 -71.26 22.26508453352303 9.17937583435424
2013.0452 46.85 -71.26 40.41539734980971 9.08415036256061
2013.0726 46.85 -71.26 21.94047189764265 8.28145355325302
2013.1000 46.85 -71.26 22.35975370175094 8.52713012967584
2013.1274 46.85 -71.26 44.48876342455024 7.79136179132113
2013.1548 46.85 -71.26 60.48824297232620 7.02366900915057
2013.2644 46.85 -71.26 24.15137975499356 8.12412895321479
2013.2918 46.85 -71.26 56.09569910829715 8.07619427903635
2013.3192 46.85 -71.26 15.24704313394125 9.07273171274947
2013.3466 46.85 -71.26 19.04858880996581 9.35299147484120
2013.3740 46.85 -71.26 5.36849990810059 7.84125375928812
2013.4014 46.85 -71.26 36.92104655764972 8.14062667934843
2013.4288 46.85 -71.26 30.49116880802508 6.98940052159528
2013.4562 46.85 -71.26 31.84308826832277 7.11360842557308
2013.4836 46.85 -71.26 14.32043306594617 7.35664872094291
2013.5110 46.85 -71.26 31.40324160948061 8.47243300589854
2013.5384 46.85 -71.26 14.43686235913066 8.13950144894425
2013.5658 46.85 -71.26 3.92912346755596 8.63644591515047
2013.7575 46.85 -71.26 -3.42419384141440 8.06135563441282
2013.7849 46.85 -71.26 11.84483265157232 8.46930228074894
2013.8123 46.85 -71.26 0.19746271461429 7.70047896703161
2013.8397 46.85 -71.26 -4.39803997550904 7.84052908774743
2013.8671 46.85 -71.26 -5.92731913417873 8.35759190497132
2013.8945 46.85 -71.26 11.15118620788196 7.82464111140660
2013.9219 46.85 -71.26 2.02091842541358 6.77976190281403
2013.9493 46.85 -71.26 -1.53843350810328 7.38601635968756
2013.9767 46.85 -71.26 3.58761565707090 7.34060569999493
2014.0041 46.85 -71.26 8.27222120406667 7.11731250372632
2014.0315 46.85 -71.26 16.88923167002544 7.54528453553016
2014.1685 46.85 -71.26 3.34782740547942 7.82810164209727
2014.1959 46.85 -71.26 17.60088647049862 8.21780104590549
2014.2233 46.85 -71.26 32.53091049147797 7.69384808709736
2014.2507 46.85 -71.26 58.69417736400400 6.93733181066035
2014.2781 46.85 -71.26 44.79182104785276 7.41034785208452
2014.3055 46.85 -71.26 27.00616107770839 7.05068607763631
2014.3329 46.85 -71.26 50.86240072844799 5.56499851573923
2014.3603 46.85 -71.26 16.65104037783966 6.52754981287654
2014.3877 46.85 -71.26 -4.68789617326268 6.54853909161877
2014.4151 46.85 -71.26 32.43390422367683 6.46977402481262
2014.4425 46.85 -71.26 8.99739003374087 6.94600418293384
2014.4699 46.85 -71.26 70.26753065551199 6.82241123536401
2014.5795 46.85 -71.26 25.22857791059482 5.40888005774626
2014.6068 46.85 -71.26 -0.41203096159140 5.98409666449751
2014.6342 46.85 -71.26 37.12033510569425 5.27565880074920
2014.6616 46.85 -71.26 32.19439380536377 6.09896544169889
2014.6890 46.85 -71.26 39.84498892938799 5.93135065314040
2014.7164 46.85 -71.26 18.74780443550632 5.78439846725681
2014.7438 46.85 -71.26 8.95114489027316 6.42755968882330
2014.7712 46.85 -71.26 -7.67493536641685 6.35124927630972
2014.7986 46.85 -71.26 12.79230999037370 5.46378957192569
2014.8260 46.85 -71.26 10.89469560711509 5.41821401406081
2014.8534 46.85 -71.26 36.45054388590600 5.79351808497716
2014.8808 46.85 -71.26 18.66988938409999 5.80544643406758
2014.9082 46.85 -71.26 17.80975325427129 5.94243919690882
2015.0452 46.85 -71.26 32.81808341021956 4.14204761532806
2015.0726 46.85 -71.26 62.86055362575284 4.78602216179924
2015.1000 46.85 -71.26 47.34193504316764 4.02591515735731
2015.1274 46.85 -71.26 60.08286024251850 3.70619244432757
2015.1548 46.85 -71.26 28.95135813800701 4.60008454109593
2015.1822 46.85 -71.26 68.67973182827356 4.19395427469299
2015.2096 46.85 -71.26 33.74891822385371 6.06190897351012
2015.2370 46.85 -71.26 53.68142169728311 6.61483375662387
2015.2644 46.85 -71.26 57.04864353887818 5.65134862387104
2015.2918 46.85 -71.26 68.99061331174221 5.56086985522699
2015.3192 46.85 -71.26 59.85416462502025 5.34512779946944
2015.3466 46.85 -71.26 2.29194289547342 5.90548700013036
2015.4836 46.85 -71.26 15.52074234782092 4.90863104356820
2015.5110 46.85 -71.26 36.22019826848683 4.81518827144398
2015.5384 46.85 -71.26 6.11760200511247 5.52592233302542
2015.5658 46.85 -71.26 61.56439789104228 5.86712001256534
2015.5932 46.85 -71.26 24.78019012567302 6.20803271437895
2015.6205 46.85 -71.26 9.84457954395736 5.85320265365502
2015.6479 46.85 -71.26 34.05676168843827 5.72141577081338
2015.6753 46.85 -71.26 6.46578911264289 5.35848258142250
2015.7027 46.85 -71.26 21.90682729334460 6.08872842142862
2015.7301 46.85 -71.26 4.70748869108261 5.97310623598704
2015.9493 46.85 -71.26 51.04899924735435 5.67665951226510
2015.9767 46.85 -71.26 32.45712839174791 6.27880938703603
2016.0041 46.85 -71.26 49.11631110740872 5.54691436670318
2016.0315 46.85 -71.26 54.52584538655434 5.27264104220431
2016.0589 46.85 -71.26 9.42415288452871 5.39460086817775
2016.0863 46.85 -71.26 46.70711399368390 4.67905602260300
2016.1137 46.85 -71.26 39.75063548661656 5.52422283196247
2016.1411 46.85 -71.26 43.43427268805195 6.82389349610160
2016.1685 46.85 -71.26 61.96986663834703 7.51039734849742
2016.1959 46.85 -71.26 66.55867161330801 7.36471350609412
2016.2233 46.85 -71.26 43.53544301695435 7.49197825243170
2016.2507 46.85 -71.26 94.10444850270565 5.65949095316983
2016.3603 46.85 -71.26 52.48511234007249 5.31075127192543
2016.3877 46.85 -71.26 42.07224141060529 6.55106684646468
2016.4151 46.85 -71.26 35.63417260513040 6.34799541775700
2016.4425 46.85 -71.26 23.49732140633892 6.98542220509317
2016.4699 46.85 -71.26 35.82314636849244 6.82970149218485
