2002.5877 46.85 -71.26 -0.803 1.492 3.638 0.116 0.102 0.533
2002.6151 46.85 -71.26 -0.400 1.449 5.430 0.111 0.099 0.510
2002.6425 46.85 -71.26 -0.358 1.137 5.588 0.113 0.101 0.519
2002.6699 46.85 -71.26 -0.660 1.071 3.802 0.098 0.087 0.454
2002.6973 46.85 -71.26 -0.414 0.804 5.485 0.172 0.090 0.661
2002.7247 46.85 -71.26 -0.522 1.320 7.246 0.105 0.094 0.483
2002.7521 46.85 -71.26 -0.790 1.157 5.811 0.097 0.088 0.450
2002.7795 46.85 -71.26 -0.761 1.397 7.290 0.112 0.102 0.521
2002.8068 46.85 -71.26 -1.009 1.029 8.055 0.100 0.090 0.464
2002.8342 46.85 -71.26 -1.379 0.889 6.216 0.099 0.089 0.459
2002.8616 46.85 -71.26 -1.223 0.758 5.820 0.104 0.083 0.463
2002.8890 46.85 -71.26 -1.059 0.683 3.383 0.101 0.090 0.463
2002.9164 46.85 -71.26 -1.012 0.616 3.728 0.108 0.095 0.497
2003.0260 46.85 -71.26 -0.633 0.644 3.964 0.122 0.108 0.563
2003.0534 46.85 -71.26 -0.398 0.858 2.515 0.197 0.177 0.893
2003.0808 46.85 -71.26 -0.131 1.254 3.033 0.177 0.152 0.802
2003.1082 46.85 -71.26 -0.585 0.714 0.477 0.103 0.090 0.479
2003.1356 46.85 -71.26 -0.457 0.791 0.246 0.096 0.083 0.447
2003.1630 46.85 -71.26 -0.548 0.746 2.981 0.102 0.089 0.472
2003.1904 46.85 -71.26 -0.419 1.183 0.726 0.120 0.102 0.549
2003.2178 46.85 -71.26 -0.686 0.877 2.268 0.100 0.087 0.465
2003.2452 46.85 -71.26 -0.720 0.732 1.127 0.098 0.086 0.453
2003.2726 46.85 -71.26 -0.697 0.643 4.398 0.095 0.084 0.443
2003.3000 46.85 -71.26 -0.328 1.088 1.593 0.093 0.082 0.433
2003.3274 46.85 -71.26 -0.224 0.657 1.946 0.121 0.107 0.557
2003.3548 46.85 -71.26 -0.635 0.888 2.028 0.132 0.118 0.603
2003.3822 46.85 -71.26 -0.565 0.873 2.725 0.122 0.106 0.560
2003.5192 46.85 -71.26 -0.661 0.731 6.803 0.125 0.114 0.574
2003.5466 46.85 -71.26 -0.863 0.389 6.174 0.138 0.126 0.630
2003.5740 46.85 -71.26 -0.918 1.342 5.682 0.160 0.148 0.728
2003.6014 46.85 -71.26 -1.015 0.916 4.662 0.138 0.126 0.630
2003.6288 46.85 -71.26 -1.015 1.315 5.096 0.131 0.119 0.601
2003.6562 46.85 -71.26 -0.932 1.117 5.405 0.141 0.128 0.642
2003.6836 46.85 -71.26 -1.191 1.311 8.774 0.138 0.127 0.631
2003.7110 46.85 -71.26 -0.877 1.246 8.454 0.110 0.098 0.503
2003.7384 46.85 -71.26 -1.074 1.193 6.823 0.132 0.119 0.601
2003.7658 46.85 -71.26 -1.030 1.309 6.885 0.121 0.110 0.554
2003.7932 46.85 -71.26 -0.964 1.230 5.141 0.135 0.122 0.614
2003.8205 46.85 -71.26 -1.215 0.817 2.420 0.147 0.129 0.659
2003.8479 46.85 -71.26 -1.156 1.098 2.568 0.130 0.111 0.583
2003.8753 46.85 -71.26 -1.097 0.827 3.020 0.135 0.121 0.611
2003.9027 46.85 -71.26 -1.029 0.439 2.999 0.125 0.109 0.564
2003.9301 46.85 -71.26 -1.130 0.584 0.613 0.130 0.113 0.583
2003.9575 46.85 -71.26 -1.210 0.189 0.142 0.145 0.128 0.647
2003.9849 46.85 -71.26 -0.807 0.527 0.413 0.138 0.120 0.615
2004.0123 46.85 -71.26 -1.174 0.552 -1.243 0.148 0.128 0.659
2004.0397 46.85 -71.26 -0.831 0.751 0.742 0.127 0.109 0.574
2004.0945 46.85 -71.26 -0.671 0.044 0.825 0.118 0.101 0.536
2004.1219 46.85 -71.26 -0.544 0.391 1.759 0.125 0.106 0.557
2004.1493 46.85 -71.26 -0.676 0.889 2.072 0.147 0.125 0.649
2004.1767 46.85 -71.26 -0.829 0.365 3.046 0.156 0.132 0.686
2004.2041 46.85 -71.26 -0.774 0.297 1.422 0.129 0.108 0.567
2004.2315 46.85 -71.26 -0.602 0.901 2.577 0.131 0.109 0.576
2004.2589 46.85 -71.26 -0.363 0.850 2.002 0.135 0.112 0.594
2004.2863 46.85 -71.26 -0.353 0.333 0.143 0.136 0.112 0.595
2004.3137 46.85 -71.26 0.071 0.003 1.178 0.129 0.107 0.567
2004.3411 46.85 -71.26 -0.157 0.214 3.521 0.142 0.116 0.617
2004.3685 46.85 -71.26 -0.385 -0.090 4.584 0.137 0.113 0.603
2004.3959 46.85 -71.26 -0.169 -0.232 6.434 0.121 0.100 0.536
2004.4233 46.85 -71.26 -0.066 -0.094 5.470 0.116 0.096 0.515
2004.4507 46.85 -71.26 0.004 -0.123 3.681 0.104 0.085 0.458
2004.4781 46.85 -71.26 -0.360 0.168 4.240 0.114 0.093 0.500
2004.5055 46.85 -71.26 -0.291 0.087 4.843 0.111 0.091 0.490
2004.5329 46.85 -71.26 -0.348 0.281 5.098 0.105 0.087 0.466
2004.5603 46.85 -71.26 -0.428 0.815 4.177 0.108 0.088 0.477
2004.5877 46.85 -71.26 -0.789 0.639 3.632 0.109 0.090 0.483
2004.6151 46.85 -71.26 -0.485 0.933 4.246 0.120 0.099 0.530
2004.6425 46.85 -71.26 -0.595 0.979 4.760 0.103 0.085 0.459
2004.6699 46.85 -71.26 -0.798 1.032 1.587 0.103 0.086 0.461
2004.6973 46.85 -71.26 -0.676 0.823 0.410 0.096 0.081 0.435
2004.7247 46.85 -71.26 -0.827 0.949 3.893 0.110 0.092 0.492
2004.7521 46.85 -71.26 -0.802 0.892 3.465 0.106 0.089 0.476
2004.7795 46.85 -71.26 -0.731 1.027 3.182 0.103 0.086 0.461
2004.8068 46.85 -71.26 -0.987 0.656 2.193 0.114 0.094 0.504
2004.8342 46.85 -71.26 -1.033 0.477 1.475 0.113 0.092 0.497
2004.8616 46.85 -71.26 -0.958 0.613 2.472 0.100 0.083 0.448
2004.8890 46.85 -71.26 -0.690 0.306 4.104 0.100 0.083 0.446
2004.9164 46.85 -71.26 -0.743 0.331 1.358 0.108 0.089 0.480
2004.9438 46.85 -71.26 -0.772 0.492 0.133 0.120 0.101 0.537
2004.9712 46.85 -71.26 -0.636 -0.020 1.287 0.109 0.089 0.478
2004.9973 46.85 -71.26 -0.744 0.277 -1.348 0.105 0.087 0.469
2005.0233 46.85 -71.26 -0.508 -0.212 -0.793 0.121 0.099 0.529
2005.0507 46.85 -71.26 -0.557 0.236 1.320 0.174 0.145 0.755
2005.0781 46.85 -71.26 -0.663 0.104 -0.135 0.134 0.111 0.585
2005.1055 46.85 -71.26 -0.974 0.424 -0.596 0.133 0.111 0.582
2005.1329 46.85 -71.26 -0.581 0.238 -2.934 0.136 0.114 0.597
2005.1603 46.85 -71.26 -0.686 -0.031 -1.021 0.122 0.102 0.540
2005.1877 46.85 -71.26 -0.284 0.385 -2.516 0.124 0.102 0.546
2005.2151 46.85 -71.26 -0.192 0.314 0.347 0.117 0.098 0.521
2005.2425 46.85 -71.26 -0.449 0.273 -1.298 0.112 0.095 0.501
2005.2699 46.85 -71.26 -0.383 0.223 -1.974 0.120 0.101 0.532
2005.2973 46.85 -71.26 -0.285 0.225 0.309 0.126 0.106 0.559
2005.3247 46.85 -71.26 -0.155 -0.428 -0.653 0.133 0.112 0.589
2005.3521 46.85 -71.26 -0.408 -0.174 2.292 0.059 0.051 0.286
2005.3795 46.85 -71.26 -0.384 0.018 4.178 0.125 0.106 0.556
2005.4068 46.85 -71.26 -0.460 -0.120 2.462 0.115 0.097 0.514
2005.4342 46.85 -71.26 -0.386 -0.093 4.073 0.131 0.112 0.588
2005.4616 46.85 -71.26 -0.435 0.178 4.285 0.119 0.102 0.533
2005.4890 46.85 -71.26 -0.641 0.356 4.113 0.113 0.096 0.507
2005.5164 46.85 -71.26 -0.538 0.282 6.064 0.113 0.096 0.506
2005.5438 46.85 -71.26 -0.770 0.529 3.775 0.122 0.105 0.546
2005.5712 46.85 -71.26 -0.875 0.506 5.189 0.132 0.114 0.591
2005.5986 46.85 -71.26 -0.769 0.735 4.711 0.135 0.117 0.603
2005.6260 46.85 -71.26 -0.535 0.438 6.372 0.120 0.104 0.538
2005.6534 46.85 -71.26 -0.635 0.976 5.898 0.126 0.109 0.564
2005.6808 46.85 -71.26 -0.450 0.958 5.113 0.123 0.108 0.556
2005.7082 46.85 -71.26 -0.586 0.998 5.051 0.148 0.131 0.664
2005.7356 46.85 -71.26 -0.658 1.123 5.847 0.130 0.115 0.588
2005.7630 46.85 -71.26 -0.691 0.337 4.876 0.131 0.116 0.590
2005.7904 46.85 -71.26 -0.672 0.576 2.164 0.123 0.109 0.557
2005.8178 46.85 -71.26 -0.842 0.459 3.658 0.126 0.112 0.570
2005.8452 46.85 -71.26 -0.666 0.273 3.261 0.135 0.120 0.611
2005.8726 46.85 -71.26 -0.649 0.723 3.303 0.117 0.104 0.532
2005.9000 46.85 -71.26 -0.602 0.747 2.737 0.115 0.101 0.521
2005.9274 46.85 -71.26 -0.435 0.580 0.377 0.122 0.104 0.551
2005.9548 46.85 -71.26 -0.576 0.422 -0.645 0.119 0.102 0.562
2005.9822 46.85 -71.26 -0.333 0.325 1.816 0.114 0.099 0.524
2006.0096 46.85 -71.26 -0.303 0.624 0.651 0.123 0.108 0.560
2006.0370 46.85 -71.26 -0.402 0.555 0.918 0.154 0.137 0.696
2006.0644 46.85 -71.26 -0.303 0.310 -1.419 0.156 0.139 0.708
2006.0918 46.85 -71.26 -0.009 0.704 -1.840 0.155 0.139 0.702
2006.1192 46.85 -71.26 0.001 0.072 -2.656 0.174 0.158 0.787
2006.1466 46.85 -71.26 0.159 0.241 -2.560 0.138 0.124 0.627
2006.1740 46.85 -71.26 0.171 0.390 -2.422 0.153 0.140 0.696
2006.2014 46.85 -71.26 0.239 0.069 -2.834 0.120 0.108 0.549
2006.2288 46.85 -71.26 0.376 0.001 -2.728 0.154 0.141 0.700
2006.2562 46.85 -71.26 0.450 -0.077 -2.220 0.144 0.133 0.657
2006.2836 46.85 -71.26 0.387 -0.291 -1.994 0.141 0.130 0.645
2006.3110 46.85 -71.26 0.772 -0.004 1.778 0.151 0.139 0.687
2006.3384 46.85 -71.26 0.116 0.012 1.899 0.137 0.126 0.624
2006.3658 46.85 -71.26 0.119 0.008 -0.094 0.151 0.140 0.690
2006.3932 46.85 -71.26 -0.181 0.547 3.074 0.149 0.138 0.680
2006.4205 46.85 -71.26 -0.056 0.390 4.026 0.150 0.138 0.684
2006.4479 46.85 -71.26 -0.239 0.099 2.124 0.166 0.149 0.751
2006.4753 46.85 -71.26 -0.276 0.430 2.187 0.166 0.154 0.760
2006.5027 46.85 -71.26 -0.550 0.695 1.158 0.172 0.160 0.787
2006.5301 46.85 -71.26 -0.168 0.512 4.162 0.204 0.190 0.928
2006.5575 46.85 -71.26 -0.160 1.058 2.374 0.163 0.151 0.745
2006.5849 46.85 -71.26 -0.378 0.752 3.766 0.167 0.156 0.765
2006.6123 46.85 -71.26 -0.653 0.686 2.518 0.204 0.192 0.931
2006.6397 46.85 -71.26 -0.451 0.937 4.719 0.174 0.163 0.795
2006.6671 46.85 -71.26 -0.601 0.624 3.898 0.159 0.148 0.726
2006.6945 46.85 -71.26 -0.998 0.509 5.768 0.202 0.189 0.919
2006.7219 46.85 -71.26 -0.521 0.781 4.136 0.191 0.176 0.868
2006.7493 46.85 -71.26 -0.362 0.868 3.970 0.226 0.210 1.028
2006.7767 46.85 -71.26 -0.465 0.681 3.052 0.196 0.183 0.893
2006.8041 46.85 -71.26 -0.368 0.355 2.436 0.159 0.147 0.725
2006.8315 46.85 -71.26 -0.639 0.879 1.368 0.184 0.171 0.838
2006.8589 46.85 -71.26 -0.572 0.315 0.168 0.179 0.166 0.817
2006.8863 46.85 -71.26 -0.506 0.312 0.596 0.172 0.159 0.785
2006.9137 46.85 -71.26 -0.381 0.090 -0.311 0.168 0.154 0.765
2006.9411 46.85 -71.26 -0.444 0.152 1.064 0.165 0.151 0.753
2006.9685 46.85 -71.26 -0.182 0.081 0.391 0.165 0.149 0.751
2006.9959 46.85 -71.26 -0.263 0.332 0.629 0.165 0.147 0.748
2007.0233 46.85 -71.26 -0.419 -0.078 2.018 0.154 0.136 0.698
2007.0507 46.85 -71.26 -0.272 0.236 0.535 0.161 0.142 0.726
2007.0781 46.85 -71.26 -0.439 0.151 0.033 0.163 0.149 0.742
2007.1055 46.85 -71.26 -0.034 -0.004 1.592 0.146 0.133 0.666
2007.1329 46.85 -71.26 -0.061 0.315 0.813 0.159 0.144 0.724
2007.1603 46.85 -71.26 -0.037 0.155 1.310 0.151 0.138 0.690
2007.1877 46.85 -71.26 0.120 0.240 3.028 0.194 0.180 0.880
2007.2151 46.85 -71.26 -0.074 0.450 0.422 0.173 0.160 0.787
2007.2425 46.85 -71.26 -0.415 -0.037 -0.041 0.166 0.154 0.757
2007.2699 46.85 -71.26 -0.069 0.103 -2.656 0.134 0.121 0.611
2007.2973 46.85 -71.26 -0.357 0.047 -2.133 0.126 0.114 0.578
2007.3247 46.85 -71.26 -0.104 -0.014 -2.058 0.153 0.141 0.699
2007.3521 46.85 -71.26 0.053 -0.205 0.513 0.167 0.155 0.762
2007.3795 46.85 -71.26 -0.105 0.222 2.213 0.175 0.163 0.798
2007.4068 46.85 -71.26 -0.088 -0.204 1.326 0.147 0.135 0.671
2007.4342 46.85 -71.26 -0.164 0.147 1.746 0.141 0.129 0.643
2007.4616 46.85 -71.26 0.099 -0.075 2.639 0.183 0.170 0.833
2007.4890 46.85 -71.26 0.394 -0.062 2.142 0.142 0.129 0.648
2007.5164 46.85 -71.26 0.131 0.129 2.715 0.149 0.137 0.681
2007.5438 46.85 -71.26 0.062 0.415 2.479 0.145 0.133 0.662
2007.5712 46.85 -71.26 -0.238 -0.004 4.901 0.149 0.136 0.679
2007.5986 46.85 -71.26 -0.333 0.645 7.407 0.181 0.167 0.826
2007.6260 46.85 -71.26 -0.178 0.648 6.288 0.149 0.136 0.679
2007.6534 46.85 -71.26 -0.386 0.935 5.884 0.151 0.138 0.690
2007.6808 46.85 -71.26 -0.250 0.759 5.914 0.159 0.145 0.726
2007.7082 46.85 -71.26 -0.031 0.903 5.018 0.120 0.106 0.549
2007.7356 46.85 -71.26 -0.095 0.811 4.516 0.164 0.148 0.744
2007.7630 46.85 -71.26 -0.213 0.948 3.813 0.128 0.113 0.584
2007.7904 46.85 -71.26 -0.118 0.981 2.512 0.161 0.147 0.732
2007.8178 46.85 -71.26 -0.003 0.678 1.626 0.184 0.170 0.837
2007.8452 46.85 -71.26 0.029 0.734 1.055 0.151 0.137 0.690
2007.8726 46.85 -71.26 -0.211 0.725 2.090 0.175 0.160 0.799
2007.9000 46.85 -71.26 -0.137 0.594 0.251 0.188 0.166 0.843
2007.9274 46.85 -71.26 -0.090 0.682 -0.550 0.181 0.167 0.827
2007.9548 46.85 -71.26 -0.122 0.237 -0.708 0.137 0.125 0.628
2007.9822 46.85 -71.26 -0.278 0.073 -0.027 0.167 0.154 0.764
2008.0096 46.85 -71.26 -0.487 0.185 0.584 0.147 0.135 0.674
2008.0370 46.85 -71.26 -0.321 0.110 -0.906 0.151 0.140 0.691
2008.0644 46.85 -71.26 -0.075 0.370 0.377 0.173 0.162 0.792
2008.0918 46.85 -71.26 0.304 -0.016 -1.898 0.140 0.129 0.644
2008.1192 46.85 -71.26 0.056 0.660 -1.512 0.163 0.152 0.747
2008.1466 46.85 -71.26 0.200 -0.277 -1.489 0.189 0.177 0.864
2008.1740 46.85 -71.26 0.005 -0.189 -3.955 0.166 0.154 0.759
2008.2014 46.85 -71.26 -0.172 0.060 -6.964 0.177 0.166 0.809
2008.2288 46.85 -71.26 -0.193 -0.138 -3.961 0.208 0.192 0.950
2008.2562 46.85 -71.26 0.014 -0.109 -3.908 0.193 0.180 0.883
2008.2836 46.85 -71.26 0.159 -0.393 -5.004 0.232 0.216 1.059
2008.3110 46.85 -71.26 0.538 -0.163 -6.348 0.239 0.223 1.090
2008.3384 46.85 -71.26 0.402 0.062 -2.481 0.177 0.165 0.810
2008.3658 46.85 -71.26 0.337 -0.669 -1.571 0.182 0.168 0.829
2008.3932 46.85 -71.26 0.522 -0.600 1.104 0.166 0.152 0.758
2008.4205 46.85 -71.26 0.304 -0.271 1.068 0.146 0.133 0.665
2008.4479 46.85 -71.26 0.023 -0.289 2.590 0.147 0.135 0.672
2008.4753 46.85 -71.26 0.165 -0.318 5.000 0.143 0.131 0.654
2008.5027 46.85 -71.26 0.162 0.011 4.338 0.175 0.159 0.796
2008.5301 46.85 -71.26 0.302 0.137 5.280 0.217 0.198 0.986
2008.5575 46.85 -71.26 0.049 0.237 3.732 0.143 0.128 0.652
2008.5849 46.85 -71.26 0.134 0.143 3.115 0.160 0.146 0.727
2008.6123 46.85 -71.26 0.009 0.240 0.105 0.135 0.121 0.615
2008.6397 46.85 -71.26 -0.049 0.120 2.204 0.148 0.133 0.670
2008.6671 46.85 -71.26 -0.173 0.260 2.875 0.142 0.128 0.645
2008.6945 46.85 -71.26 -0.233 0.105 1.393 0.137 0.123 0.625
2008.7219 46.85 -71.26 -0.144 0.146 4.004 0.157 0.143 0.712
2008.7493 46.85 -71.26 -0.361 0.231 2.933 0.142 0.129 0.648
2008.7767 46.85 -71.26 -0.071 0.304 2.670 0.164 0.152 0.749
2008.8041 46.85 -71.26 -0.248 -0.025 3.947 0.165 0.153 0.753
2008.8315 46.85 -71.26 -0.179 0.111 3.254 0.187 0.173 0.852
2008.8589 46.85 -71.26 -0.195 0.253 2.076 0.218 0.202 0.992
2008.8863 46.85 -71.26 -0.199 -0.142 1.445 0.209 0.194 0.952
2008.9137 46.85 -71.26 -0.213 -0.017 0.415 0.199 0.185 0.906
2008.9411 46.85 -71.26 -0.072 0.158 1.362 0.209 0.193 0.951
2008.9685 46.85 -71.26 -0.065 0.116 -1.273 0.195 0.181 0.891
2008.9945 46.85 -71.26 0.295 -0.264 -0.076 0.165 0.153 0.754
2009.0205 46.85 -71.26 0.320 -0.204 -1.752 0.162 0.151 0.740
2009.0479 46.85 -71.26 0.022 0.025 -2.430 0.162 0.151 0.742
2009.0753 46.85 -71.26 0.162 -0.006 -2.001 0.156 0.145 0.715
2009.1027 46.85 -71.26 0.259 -0.149 -1.741 0.193 0.180 0.883
2009.1301 46.85 -71.26 0.187 -0.347 -3.886 0.154 0.143 0.708
2009.1575 46.85 -71.26 -0.266 0.224 -3.604 0.158 0.146 0.723
2009.1849 46.85 -71.26 0.160 0.269 -2.774 0.179 0.168 0.820
2009.2123 46.85 -71.26 0.094 0.352 -3.186 0.157 0.142 0.713
2009.2397 46.85 -71.26 0.003 -0.327 -2.242 0.175 0.163 0.801
2009.2671 46.85 -71.26 0.521 -0.059 -1.791 0.147 0.136 0.674
2009.2945 46.85 -71.26 0.614 -0.152 -1.467 0.151 0.139 0.690
2009.3219 46.85 -71.26 0.668 -0.524 -0.527 0.157 0.146 0.720
2009.3493 46.85 -71.26 0.345 -0.093 2.100 0.145 0.133 0.663
2009.3767 46.85 -71.26 0.714 -0.403 3.980 0.153 0.140 0.697
2009.4041 46.85 -71.26 0.801 -0.111 1.780 0.135 0.123 0.618
2009.4315 46.85 -71.26 0.723 -0.157 0.671 0.154 0.141 0.703
2009.4589 46.85 -71.26 0.633 0.243 2.184 0.132 0.119 0.603
2009.4863 46.85 -71.26 0.482 0.186 -1.794 0.145 0.131 0.662
2009.5137 46.85 -71.26 0.263 0.242 -0.799 0.141 0.124 0.638
2009.5411 46.85 -71.26 0.183 -0.150 0.257 0.171 0.154 0.778
2009.5685 46.85 -71.26 0.040 -0.011 -0.321 0.185 0.166 0.838
2009.5959 46.85 -71.26 -0.155 -0.227 -0.686 0.162 0.145 0.737
2009.6233 46.85 -71.26 -0.375 0.368 -0.805 0.167 0.151 0.758
2009.6507 46.85 -71.26 0.006 -0.408 1.640 0.161 0.146 0.730
2009.6781 46.85 -71.26 0.151 -0.154 2.121 0.171 0.156 0.777
2009.7055 46.85 -71.26 -0.140 0.329 1.443 0.177 0.162 0.803
2009.7329 46.85 -71.26 0.013 0.110 3.544 0.171 0.156 0.776
2009.7603 46.85 -71.26 -0.063 0.042 0.222 0.194 0.179 0.883
2009.7877 46.85 -71.26 -0.123 0.557 -1.979 0.179 0.165 0.816
2009.8151 46.85 -71.26 -0.240 0.007 2.088 0.192 0.177 0.872
2009.8425 46.85 -71.26 -0.341 -0.165 -1.558 0.175 0.161 0.796
2009.8699 46.85 -71.26 -0.475 -0.275 0.511 0.167 0.154 0.762
2009.8973 46.85 -71.26 -0.183 0.104 0.841 0.156 0.144 0.714
2009.9247 46.85 -71.26 -0.272 0.092 -2.689 0.158 0.142 0.719
2009.9521 46.85 -71.26 -0.128 -0.448 0.722 0.147 0.134 0.671
2009.9795 46.85 -71.26 -0.179 -0.237 -0.706 0.151 0.138 0.690
2010.0068 46.85 -71.26 0.121 -0.334 -1.005 0.189 0.175 0.861
2010.0342 46.85 -71.26 0.069 0.095 -1.092 0.149 0.136 0.681
2010.0616 46.85 -71.26 -0.133 -0.203 -1.320 0.153 0.140 0.696
2010.0890 46.85 -71.26 0.048 -0.097 -2.436 0.181 0.167 0.823
2010.1164 46.85 -71.26 -0.111 -0.040 -3.199 0.187 0.173 0.850
2010.1438 46.85 -71.26 0.233 -0.680 -1.888 0.181 0.166 0.823
2010.1712 46.85 -71.26 -0.068 -0.462 -2.603 0.173 0.159 0.788
2010.1986 46.85 -71.26 -0.126 -0.266 -2.022 0.166 0.152 0.756
2010.2260 46.85 -71.26 0.035 -0.130 -0.467 0.181 0.166 0.824
2010.2534 46.85 -71.26 0.271 -0.017 -0.065 0.187 0.171 0.852
2010.2808 46.85 -71.26 0.229 -0.014 0.925 0.146 0.131 0.664
2010.3082 46.85 -71.26 0.133 -0.123 1.706 0.152 0.138 0.692
2010.3356 46.85 -71.26 0.416 0.048 0.074 0.140 0.125 0.640
2010.3630 46.85 -71.26 0.162 -0.117 1.080 0.149 0.133 0.679
2010.3904 46.85 -71.26 0.240 -0.575 1.540 0.157 0.133 0.699
2010.4178 46.85 -71.26 0.244 -0.261 2.103 0.159 0.142 0.720
2010.4452 46.85 -71.26 0.035 -0.149 0.589 0.141 0.126 0.644
2010.4726 46.85 -71.26 0.129 -0.208 3.726 0.128 0.113 0.585
2010.5000 46.85 -71.26 0.196 -0.185 1.103 0.143 0.128 0.651
2010.5274 46.85 -71.26 0.319 -0.053 2.419 0.216 0.200 0.979
2010.5548 46.85 -71.26 -0.019 -0.162 3.973 0.141 0.128 0.642
2010.5822 46.85 -71.26 0.139 -0.299 3.044 0.128 0.116 0.584
2010.6096 46.85 -71.26 -0.055 0.073 2.540 0.162 0.150 0.738
2010.6370 46.85 -71.26 -0.096 -0.059 2.951 0.146 0.134 0.665
2010.6644 46.85 -71.26 -0.296 -0.233 2.725 0.137 0.126 0.626
2010.6918 46.85 -71.26 -0.041 -0.253 2.413 0.162 0.151 0.741
2010.7192 46.85 -71.26 -0.202 -0.044 2.397 0.152 0.140 0.693
2010.7466 46.85 -71.26 -0.148 -0.020 -2.143 0.175 0.163 0.795
2010.7740 46.85 -71.26 -0.262 -0.174 2.716 0.145 0.133 0.663
2010.8014 46.85 -71.26 -0.193 -0.106 1.130 0.138 0.127 0.630
2010.8288 46.85 -71.26 -0.043 -0.001 -1.244 0.156 0.144 0.711
2010.8562 46.85 -71.26 -0.145 0.033 -0.920 0.153 0.142 0.699
2010.8836 46.85 -71.26 0.062 -0.123 -1.773 0.143 0.132 0.656
2010.9110 46.85 -71.26 0.037 -0.588 -2.256 0.156 0.144 0.710
2010.9384 46.85 -71.26 0.293 -0.584 -3.767 0.161 0.149 0.735
2010.9658 46.85 -71.26 0.272 -0.905 -1.638 0.176 0.163 0.802
2010.9932 46.85 -71.26 0.157 -0.582 -1.865 0.162 0.112 0.676
2011.1027 46.85 -71.26 0.014 -0.454 -2.325 0.154 0.128 0.690
2011.1301 46.85 -71.26 -0.216 -0.366 -5.767 0.212 0.195 0.958
2011.1575 46.85 -71.26 0.126 0.094 -2.427 0.145 0.131 0.662
2011.1849 46.85 -71.26 0.066 -0.462 -1.884 0.119 0.105 0.543
2011.2123 46.85 -71.26 0.017 -0.665 -4.613 0.180 0.166 0.818
2011.2397 46.85 -71.26 0.455 -0.427 -5.972 0.186 0.172 0.846
2011.2671 46.85 -71.26 0.538 -0.693 -2.040 0.153 0.140 0.696
2011.2945 46.85 -71.26 0.624 -0.769 -3.569 0.175 0.163 0.798
2011.3219 46.85 -71.26 0.496 -1.042 -4.074 0.164 0.153 0.750
2011.3493 46.85 -71.26 0.742 -0.743 -3.337 0.149 0.138 0.682
2011.3767 46.85 -71.26 0.688 -1.056 -3.493 0.172 0.160 0.786
2011.4041 46.85 -71.26 0.665 -1.070 -3.028 0.154 0.142 0.704
2011.4315 46.85 -71.26 0.774 -0.780 -1.161 0.166 0.139 0.737
2011.5137 46.85 -71.26 0.602 -0.995 -0.045 0.148 0.130 0.668
2011.5411 46.85 -71.26 0.608 -0.648 0.734 0.152 0.139 0.692
2011.5685 46.85 -71.26 0.487 -0.450 1.725 0.150 0.136 0.683
2011.5959 46.85 -71.26 0.275 -0.422 2.007 0.159 0.145 0.724
2011.6233 46.85 -71.26 0.379 -0.331 0.896 0.160 0.145 0.729
2011.6507 46.85 -71.26 0.360 0.072 1.672 0.185 0.170 0.840
2011.6781 46.85 -71.26 0.241 0.158 -0.909 0.172 0.158 0.781
2011.7055 46.85 -71.26 0.017 0.421 -1.138 0.172 0.158 0.780
2011.7329 46.85 -71.26 0.073 0.261 -0.665 0.196 0.183 0.892
2011.7603 46.85 -71.26 -0.055 -0.284 -0.843 0.170 0.157 0.773
2011.7877 46.85 -71.26 -0.127 0.631 -0.370 0.180 0.167 0.818
2011.8151 46.85 -71.26 -0.214 0.020 -1.259 0.177 0.164 0.805
2011.8425 46.85 -71.26 0.044 -0.122 0.006 0.190 0.177 0.863
2011.8699 46.85 -71.26 -0.028 0.027 -1.286 0.189 0.166 0.844
2011.9521 46.85 -71.26 0.250 -0.652 -4.083 0.138 0.104 0.597
2011.9795 46.85 -71.26 0.032 -0.782 -1.036 0.157 0.140 0.703
2012.0068 46.85 -71.26 0.446 -0.722 -1.271 0.147 0.129 0.657
2012.0342 46.85 -71.26 0.622 -1.181 -1.339 0.175 0.152 0.776
2012.0616 46.85 -71.26 0.588 -0.779 -3.062 0.154 0.133 0.682
2012.0890 46.85 -71.26 0.369 -0.466 -3.991 0.153 0.130 0.674
2012.1164 46.85 -71.26 0.338 -0.669 -4.153 0.151 0.126 0.663
2012.1438 46.85 -71.26 0.183 -0.513 -4.604 0.156 0.130 0.684
2012.1712 46.85 -71.26 0.702 -0.216 -5.002 0.151 0.124 0.661
2012.1986 46.85 -71.26 0.832 -0.456 -5.518 0.138 0.111 0.600
2012.2260 46.85 -71.26 0.369 -0.357 -4.773 0.139 0.112 0.605
2012.2534 46.85 -71.26 0.746 -0.515 -4.335 0.135 0.109 0.588
2012.2808 46.85 -71.26 0.924 -0.519 -3.780 0.127 0.101 0.549
2012.3082 46.85 -71.26 0.962 -0.719 -2.675 0.165 0.112 0.687
2012.3904 46.85 -71.26 0.994 -0.257 0.019 0.161 0.126 0.702
2012.4178 46.85 -71.26 0.735 -0.552 -1.595 0.117 0.092 0.507
2012.4452 46.85 -71.26 0.610 -0.670 0.903 0.116 0.091 0.504
2012.4726 46.85 -71.26 0.542 -0.346 1.103 0.125 0.098 0.540
2012.5000 46.85 -71.26 0.633 -0.187 0.278 0.119 0.094 0.519
2012.5274 46.85 -71.26 0.483 0.334 0.105 0.126 0.100 0.546
2012.5548 46.85 -71.26 0.590 0.261 1.918 0.126 0.100 0.546
2012.5822 46.85 -71.26 0.486 0.377 2.328 0.132 0.106 0.573
2012.6096 46.85 -71.26 0.500 -0.153 1.810 0.129 0.106 0.566
2012.6370 46.85 -71.26 0.315 0.259 1.707 0.120 0.099 0.526
2012.6644 46.85 -71.26 0.209 0.461 1.664 0.130 0.108 0.571
2012.6918 46.85 -71.26 0.158 0.186 1.492 0.132 0.113 0.587
2012.7192 46.85 -71.26 0.193 0.368 2.910 0.156 0.138 0.696
2012.7466 46.85 -71.26 0.534 0.147 1.481 0.128 0.093 0.548
2012.8562 46.85 -71.26 0.439 -0.025 -0.375 0.164 0.144 0.731
2012.8836 46.85 -71.26 0.349 -0.490 -2.028 0.150 0.139 0.683
2012.9110 46.85 -71.26 0.427 -0.466 -1.919 0.143 0.132 0.651
2012.9384 46.85 -71.26 0.430 -0.053 -0.284 0.141 0.128 0.641
2012.9658 46.85 -71.26 0.540 0.048 -1.195 0.153 0.142 0.696
2012.9918 46.85 -71.26 0.602 -0.470 -7.086 0.078 0.070 0.364
2013.0178 46.85 -71.26 0.210 -0.220 -2.355 0.091 0.083 0.419
2013.0452 46.85 -71.26 0.616 -0.298 -3.801 0.091 0.082 0.418
2013.0726 46.85 -71.26 0.736 -0.519 -3.424 0.084 0.076 0.389
2013.1000 46.85 -71.26 0.694 -0.329 -3.295 0.086 0.078 0.398
2013.1274 46.85 -71.26 0.690 -0.535 -4.765 0.081 0.072 0.374
2013.1548 46.85 -71.26 0.808 -0.068 -5.727 0.080 0.066 0.361
2013.2644 46.85 -71.26 0.830 -0.080 -3.856 0.101 0.054 0.400
2013.2918 46.85 -71.26 0.864 -0.601 -5.282 0.082 0.075 0.382
2013.3192 46.85 -71.26 0.615 -0.612 -3.428 0.090 0.083 0.417
2013.3466 46.85 -71.26 0.750 -0.751 -3.930 0.092 0.085 0.427
2013.3740 46.85 -71.26 0.931 -0.633 -1.813 0.080 0.073 0.373
2013.4014 46.85 -71.26 0.639 -0.936 -3.860 0.082 0.075 0.383
2013.4288 46.85 -71.26 0.642 -0.766 -3.171 0.074 0.066 0.345
2013.4562 46.85 -71.26 0.555 -0.419 -4.642 0.075 0.068 0.351
2013.4836 46.85 -71.26 0.662 -0.952 -1.986 0.076 0.069 0.357
2013.5110 46.85 -71.26 0.310 -0.288 -3.623 0.085 0.078 0.395
2013.5384 46.85 -71.26 0.251 -0.102 -2.400 0.086 0.075 0.393
2013.5658 46.85 -71.26 0.520 -0.278 -1.515 0.088 0.080 0.406
2013.7575 46.85 -71.26 0.142 -0.356 -1.010 0.086 0.076 0.395
2013.7849 46.85 -71.26 0.254 -0.007 -1.347 0.088 0.078 0.403
2013.8123 46.85 -71.26 0.489 -0.728 -1.204 0.080 0.071 0.372
2013.8397 46.85 -71.26 0.650 -0.265 -0.887 0.081 0.073 0.376
2013.8671 46.85 -71.26 0.611 -0.653 -1.429 0.087 0.077 0.401
2013.8945 46.85 -71.26 0.701 -0.536 -3.218 0.081 0.072 0.373
2013.9219 46.85 -71.26 0.697 -0.525 -2.786 0.073 0.065 0.340
2013.9493 46.85 -71.26 0.743 -0.576 -2.976 0.077 0.069 0.357
2013.9767 46.85 -71.26 0.758 -0.280 -3.381 0.078 0.070 0.363
2014.0041 46.85 -71.26 0.745 -0.441 -3.684 0.075 0.067 0.351
2014.0315 46.85 -71.26 0.912 -0.642 -4.963 0.078 0.070 0.363
2014.1685 46.85 -71.26 0.271 -1.079 -2.910 0.083 0.074 0.383
2014.1959 46.85 -71.26 0.284 -0.671 -3.966 0.082 0.075 0.382
2014.2233 46.85 -71.26 0.543 -1.176 -4.709 0.079 0.071 0.365
2014.2507 46.85 -71.26 0.416 -1.083 -6.991 0.072 0.065 0.337
2014.2781 46.85 -71.26 0.382 -0.577 -6.185 0.076 0.069 0.355
2014.3055 46.85 -71.26 0.658 -0.769 -4.057 0.073 0.066 0.342
2014.3329 46.85 -71.26 0.839 -0.942 -6.268 0.061 0.054 0.289
2014.3603 46.85 -71.26 0.843 -1.051 -3.113 0.069 0.061 0.322
2014.3877 46.85 -71.26 0.716 -1.359 -2.045 0.069 0.061 0.322
2014.4151 46.85 -71.26 0.815 -0.974 -3.256 0.069 0.061 0.321
2014.4425 46.85 -71.26 0.672 -1.237 -1.679 0.073 0.065 0.339
2014.4699 46.85 -71.26 -0.079 -1.123 -5.217 0.073 0.064 0.338
2014.5795 46.85 -71.26 0.453 -0.701 -3.365 0.068 0.053 0.311
2014.6068 46.85 -71.26 0.447 -0.963 -1.034 0.065 0.057 0.303
2014.6342 46.85 -71.26 0.494 -0.713 -4.482 0.060 0.052 0.281
2014.6616 46.85 -71.26 0.199 -0.351 -3.184 0.065 0.058 0.306
2014.6890 46.85 -71.26 0.219 -0.546 -3.978 0.064 0.056 0.299
2014.7164 46.85 -71.26 0.444 -1.097 -2.639 0.062 0.055 0.294
2014.7438 46.85 -71.26 0.565 -0.609 -1.789 0.067 0.060 0.315
2014.7712 46.85 -71.26 0.538 -0.464 -1.116 0.067 0.059 0.311
2014.7986 46.85 -71.26 0.511 -0.714 -3.234 0.060 0.052 0.283
2014.8260 46.85 -71.26 0.646 -0.423 -3.304 0.060 0.052 0.282
2014.8534 46.85 -71.26 0.589 -0.866 -5.781 0.063 0.055 0.296
2014.8808 46.85 -71.26 0.863 -0.689 -5.346 0.064 0.055 0.296
2014.9082 46.85 -71.26 0.532 -0.701 -5.668 0.065 0.056 0.301
2015.0452 46.85 -71.26 0.677 -0.782 -6.131 0.050 0.040 0.238
2015.0726 46.85 -71.26 0.524 -0.786 -8.133 0.054 0.044 0.252
2015.1000 46.85 -71.26 0.736 -0.938 -7.144 0.049 0.039 0.231
2015.1274 46.85 -71.26 0.390 -0.832 -7.758 0.045 0.037 0.218
2015.1548 46.85 -71.26 0.371 -0.653 -5.365 0.052 0.042 0.245
2015.1822 46.85 -71.26 0.508 -0.375 -7.656 0.049 0.040 0.233
2015.2096 46.85 -71.26 0.497 -0.357 -6.051 0.065 0.053 0.294
2015.2370 46.85 -71.26 0.520 -0.608 -5.745 0.069 0.059 0.316
2015.2644 46.85 -71.26 0.493 -0.910 -6.286 0.061 0.052 0.283
2015.2918 46.85 -71.26 0.910 -0.693 -6.657 0.061 0.053 0.287
2015.3192 46.85 -71.26 0.704 -1.127 -5.851 0.059 0.051 0.278
2015.3466 46.85 -71.26 0.820 -0.537 -1.107 0.064 0.055 0.298
2015.4836 46.85 -71.26 0.652 -0.878 -4.000 0.061 0.047 0.283
2015.5110 46.85 -71.26 0.612 -1.204 -4.920 0.058 0.047 0.272
2015.5384 46.85 -71.26 0.798 -0.635 -1.090 0.063 0.053 0.295
2015.5658 46.85 -71.26 0.785 -0.335 -4.337 0.063 0.055 0.294
2015.5932 46.85 -71.26 0.675 -0.259 -3.979 0.065 0.057 0.303
2015.6205 46.85 -71.26 0.603 -0.847 -2.615 0.063 0.055 0.295
2015.6479 46.85 -71.26 0.615 -0.843 -4.046 0.061 0.053 0.287
2015.6753 46.85 -71.26 0.571 -0.613 -1.828 0.060 0.051 0.279
2015.7027 46.85 -71.26 0.466 -0.699 -1.100 0.064 0.056 0.299
2015.7301 46.85 -71.26 0.376 -0.444 0.067 0.065 0.056 0.301
2015.9493 46.85 -71.26 0.140 -1.044 -9.412 0.062 0.055 0.294
2015.9767 46.85 -71.26 0.461 -0.954 -6.595 0.065 0.057 0.303
2016.0041 46.85 -71.26 0.558 -1.149 -7.623 0.059 0.052 0.278
2016.0315 46.85 -71.26 0.717 -1.335 -8.467 0.056 0.049 0.266
2016.0589 46.85 -71.26 0.582 -1.260 -6.772 0.058 0.050 0.272
2016.0863 46.85 -71.26 0.619 -1.027 -6.974 0.052 0.046 0.252
2016.1137 46.85 -71.26 0.597 -1.910 -7.108 0.059 0.051 0.276
2016.1411 46.85 -71.26 0.731 -1.486 -5.468 0.069 0.060 0.318
2016.1685 46.85 -71.26 0.636 -0.499 -6.126 0.073 0.065 0.338
2016.1959 46.85 -71.26 0.998 -1.247 -5.724 0.072 0.065 0.334
2016.2233 46.85 -71.26 1.057 -0.795 -4.731 0.072 0.067 0.338
2016.2507 46.85 -71.26 1.138 -1.138 -9.095 0.061 0.053 0.289
2016.3603 46.85 -71.26 0.745 -0.766 -4.187 0.057 0.050 0.269
2016.3877 46.85 -71.26 0.933 -1.548 -4.744 0.066 0.058 0.308
2016.4151 46.85 -71.26 0.923 -1.598 -1.721 0.065 0.057 0.304
2016.4425 46.85 -71.26 0.951 -1.622 -1.126 0.069 0.062 0.322
2016.4699 46.85 -71.26 0.990 -1.033 -3.528 0.068 0.060 0.316
