2002.5877 39.04 16.69 -0.310 0.126 4.495 0.114 0.097 0.520
2002.6151 39.04 16.69 -0.260 0.775 4.405 0.109 0.094 0.498
2002.6425 39.04 16.69 -0.309 0.097 4.618 0.111 0.095 0.506
2002.6699 39.04 16.69 -0.379 -0.127 3.730 0.096 0.082 0.444
2002.6973 39.04 16.69 -0.581 -0.320 2.642 0.165 0.076 0.627
2002.7247 39.04 16.69 -0.558 -0.691 1.685 0.103 0.089 0.470
2002.7521 39.04 16.69 -0.473 -0.050 1.637 0.095 0.083 0.440
2002.7795 39.04 16.69 -0.499 -0.200 -0.190 0.111 0.096 0.510
2002.8068 39.04 16.69 -0.465 -0.078 -1.993 0.099 0.085 0.453
2002.8342 39.04 16.69 -0.552 -0.104 -0.398 0.098 0.084 0.447
2002.8616 39.04 16.69 -0.363 0.126 1.692 0.101 0.075 0.445
2002.8890 39.04 16.69 -0.396 -0.177 -1.717 0.099 0.084 0.452
2002.9164 39.04 16.69 -0.214 0.049 -2.210 0.106 0.089 0.483
2003.0260 39.04 16.69 0.507 0.725 -2.622 0.120 0.101 0.548
2003.0534 39.04 16.69 0.742 0.580 1.622 0.194 0.167 0.868
2003.0808 39.04 16.69 1.048 0.297 -1.896 0.174 0.143 0.776
2003.1082 39.04 16.69 0.700 0.679 -1.884 0.102 0.084 0.466
2003.1356 39.04 16.69 1.088 0.396 -1.214 0.094 0.077 0.435
2003.1630 39.04 16.69 0.848 0.592 -0.056 0.100 0.083 0.460
2003.1904 39.04 16.69 0.469 0.255 -0.684 0.118 0.096 0.532
2003.2178 39.04 16.69 0.572 0.491 1.283 0.099 0.082 0.453
2003.2452 39.04 16.69 0.241 0.448 0.303 0.096 0.081 0.443
2003.2726 39.04 16.69 0.274 1.051 1.875 0.094 0.079 0.433
2003.3000 39.04 16.69 0.340 0.469 1.663 0.092 0.078 0.424
2003.3274 39.04 16.69 0.340 0.727 0.615 0.119 0.102 0.544
2003.3548 39.04 16.69 0.555 0.561 1.620 0.130 0.113 0.591
2003.3822 39.04 16.69 0.045 0.708 3.065 0.119 0.098 0.541
2003.5192 39.04 16.69 -0.338 0.142 1.068 0.124 0.109 0.563
2003.5466 39.04 16.69 -0.499 -0.203 2.241 0.136 0.121 0.619
2003.5740 39.04 16.69 -0.407 -0.668 2.020 0.158 0.142 0.715
2003.6014 39.04 16.69 -0.626 -0.379 3.542 0.136 0.121 0.618
2003.6288 39.04 16.69 -0.618 -0.692 2.891 0.129 0.114 0.589
2003.6562 39.04 16.69 -0.809 -0.033 3.841 0.139 0.122 0.628
2003.6836 39.04 16.69 -0.806 -0.700 1.728 0.137 0.121 0.619
2003.7110 39.04 16.69 -0.937 -0.179 2.845 0.108 0.093 0.493
2003.7384 39.04 16.69 -0.914 -0.601 4.075 0.130 0.114 0.589
2003.7658 39.04 16.69 -1.038 -0.345 2.315 0.120 0.105 0.543
2003.7932 39.04 16.69 -0.876 -0.463 2.434 0.133 0.117 0.602
2003.8205 39.04 16.69 -0.733 -0.384 0.815 0.145 0.123 0.644
2003.8479 39.04 16.69 -0.765 -0.114 -0.966 0.128 0.105 0.567
2003.8753 39.04 16.69 -0.496 -0.109 -0.246 0.133 0.115 0.598
2003.9027 39.04 16.69 -0.488 0.474 -1.018 0.123 0.103 0.549
2003.9301 39.04 16.69 -0.602 -0.085 -2.406 0.127 0.108 0.570
2003.9575 39.04 16.69 -0.257 0.099 -1.123 0.142 0.123 0.634
2003.9849 39.04 16.69 -0.116 0.199 -2.865 0.135 0.115 0.602
2004.0123 39.04 16.69 -0.249 0.088 -2.221 0.145 0.123 0.644
2004.0397 39.04 16.69 -0.135 -0.049 -1.915 0.124 0.099 0.551
2004.0945 39.04 16.69 0.210 0.551 -1.362 0.116 0.093 0.516
2004.1219 39.04 16.69 0.369 0.729 -1.408 0.123 0.101 0.543
2004.1493 39.04 16.69 0.370 0.302 0.235 0.144 0.119 0.633
2004.1767 39.04 16.69 0.408 0.542 -1.605 0.153 0.127 0.671
2004.2041 39.04 16.69 0.322 0.718 -1.522 0.126 0.102 0.552
2004.2315 39.04 16.69 0.637 0.915 2.827 0.128 0.103 0.560
2004.2589 39.04 16.69 0.454 0.480 -1.129 0.132 0.106 0.577
2004.2863 39.04 16.69 0.529 0.510 0.550 0.133 0.106 0.578
2004.3137 39.04 16.69 0.200 1.437 -1.779 0.127 0.100 0.551
2004.3411 39.04 16.69 0.109 0.850 -0.639 0.139 0.110 0.600
2004.3685 39.04 16.69 -0.007 0.604 -2.305 0.134 0.105 0.582
2004.3959 39.04 16.69 0.129 0.561 -0.316 0.118 0.093 0.517
2004.4233 39.04 16.69 0.185 0.608 0.149 0.113 0.089 0.497
2004.4507 39.04 16.69 0.190 0.331 -0.997 0.101 0.079 0.443
2004.4781 39.04 16.69 0.235 -0.028 -0.068 0.111 0.086 0.483
2004.5055 39.04 16.69 -0.046 0.016 -0.651 0.108 0.084 0.473
2004.5329 39.04 16.69 -0.089 0.103 1.682 0.103 0.080 0.450
2004.5603 39.04 16.69 -0.136 -0.248 2.605 0.105 0.082 0.460
2004.5877 39.04 16.69 -0.452 -0.417 3.270 0.107 0.082 0.466
2004.6151 39.04 16.69 -0.568 0.234 -0.110 0.117 0.091 0.511
2004.6425 39.04 16.69 -0.517 -0.125 3.569 0.100 0.078 0.442
2004.6699 39.04 16.69 -0.598 -0.536 5.077 0.100 0.078 0.443
2004.6973 39.04 16.69 -0.778 -0.178 2.763 0.094 0.074 0.419
2004.7247 39.04 16.69 -0.638 -0.392 1.639 0.108 0.084 0.473
2004.7521 39.04 16.69 -0.706 -0.519 2.069 0.104 0.081 0.458
2004.7795 39.04 16.69 -0.530 -0.503 2.034 0.101 0.078 0.444
2004.8068 39.04 16.69 -0.610 -0.056 0.560 0.112 0.086 0.486
2004.8342 39.04 16.69 -0.472 -0.221 -0.325 0.110 0.085 0.479
2004.8616 39.04 16.69 -0.263 -0.010 -2.075 0.098 0.076 0.432
2004.8890 39.04 16.69 -0.085 0.139 -1.805 0.097 0.076 0.431
2004.9164 39.04 16.69 -0.043 -0.032 -1.180 0.106 0.083 0.464
2004.9438 39.04 16.69 -0.000 0.053 -0.543 0.117 0.092 0.517
2004.9712 39.04 16.69 0.160 0.204 0.005 0.106 0.083 0.463
2004.9973 39.04 16.69 0.263 0.319 0.342 0.103 0.081 0.453
2005.0233 39.04 16.69 0.337 0.453 0.504 0.118 0.094 0.515
2005.0507 39.04 16.69 0.481 0.370 0.050 0.171 0.141 0.740
2005.0781 39.04 16.69 0.376 0.784 -3.176 0.131 0.106 0.571
2005.1055 39.04 16.69 0.481 0.381 -1.233 0.130 0.106 0.568
2005.1329 39.04 16.69 0.891 0.294 2.899 0.133 0.109 0.583
2005.1603 39.04 16.69 0.715 1.065 -2.110 0.120 0.097 0.526
2005.1877 39.04 16.69 0.692 0.948 -2.788 0.121 0.096 0.528
2005.2151 39.04 16.69 0.964 0.715 -2.201 0.114 0.090 0.503
2005.2425 39.04 16.69 0.677 1.106 -3.323 0.110 0.089 0.486
2005.2699 39.04 16.69 0.714 0.950 -2.029 0.117 0.095 0.517
2005.2973 39.04 16.69 0.765 0.743 -3.791 0.123 0.100 0.544
2005.3247 39.04 16.69 0.669 0.785 -1.908 0.130 0.106 0.572
2005.3521 39.04 16.69 0.426 0.748 -3.536 0.058 0.047 0.281
2005.3795 39.04 16.69 0.316 0.767 -2.148 0.122 0.100 0.540
2005.4068 39.04 16.69 0.181 0.814 -0.022 0.112 0.091 0.499
2005.4342 39.04 16.69 0.125 0.125 -0.418 0.129 0.105 0.571
2005.4616 39.04 16.69 -0.048 0.431 0.062 0.117 0.096 0.519
2005.4890 39.04 16.69 -0.127 0.828 -0.078 0.111 0.091 0.493
2005.5164 39.04 16.69 -0.023 0.427 -0.343 0.110 0.091 0.493
2005.5438 39.04 16.69 -0.391 0.335 1.655 0.119 0.099 0.532
2005.5712 39.04 16.69 -0.429 0.111 -1.574 0.130 0.108 0.576
2005.5986 39.04 16.69 -0.435 0.345 -0.724 0.132 0.111 0.589
2005.6260 39.04 16.69 -0.513 0.206 0.149 0.117 0.098 0.525
2005.6534 39.04 16.69 -0.505 0.000 0.451 0.123 0.104 0.551
2005.6808 39.04 16.69 -0.720 0.135 -0.764 0.121 0.102 0.543
2005.7082 39.04 16.69 -0.758 -0.001 -1.258 0.146 0.125 0.650
2005.7356 39.04 16.69 -0.696 -0.224 -1.096 0.128 0.110 0.575
2005.7630 39.04 16.69 -0.707 -0.230 -0.263 0.129 0.110 0.577
2005.7904 39.04 16.69 -0.754 -0.555 -1.244 0.121 0.103 0.544
2005.8178 39.04 16.69 -0.669 -0.479 -3.295 0.124 0.107 0.558
2005.8452 39.04 16.69 -0.680 0.019 -0.303 0.133 0.114 0.598
2005.8726 39.04 16.69 -0.479 -0.394 -2.610 0.115 0.099 0.521
2005.9000 39.04 16.69 -0.544 -0.264 -1.187 0.113 0.096 0.510
2005.9274 39.04 16.69 -0.289 0.202 -2.159 0.119 0.095 0.531
2005.9548 39.04 16.69 0.038 0.381 -4.075 0.116 0.095 0.545
2005.9822 39.04 16.69 -0.034 0.529 -0.579 0.112 0.092 0.509
2006.0096 39.04 16.69 0.246 0.440 -3.987 0.121 0.102 0.546
2006.0370 39.04 16.69 0.181 0.116 -2.727 0.152 0.130 0.679
2006.0644 39.04 16.69 0.347 0.512 -2.403 0.154 0.132 0.691
2006.0918 39.04 16.69 0.403 0.442 -2.574 0.153 0.132 0.686
2006.1192 39.04 16.69 0.119 0.814 -2.211 0.172 0.151 0.771
2006.1466 39.04 16.69 0.396 0.645 -5.743 0.136 0.119 0.614
2006.1740 39.04 16.69 0.488 0.621 -7.949 0.151 0.134 0.683
2006.2014 39.04 16.69 0.589 1.093 -6.422 0.119 0.103 0.538
2006.2288 39.04 16.69 0.684 0.836 -6.974 0.152 0.136 0.689
2006.2562 39.04 16.69 0.758 0.727 -3.324 0.143 0.128 0.646
2006.2836 39.04 16.69 0.692 0.945 -4.077 0.140 0.125 0.634
2006.3110 39.04 16.69 0.770 1.240 -1.796 0.149 0.134 0.676
2006.3384 39.04 16.69 0.682 0.915 -2.497 0.135 0.122 0.614
2006.3658 39.04 16.69 0.475 1.021 -2.290 0.149 0.135 0.679
2006.3932 39.04 16.69 0.298 0.644 0.095 0.147 0.133 0.669
2006.4205 39.04 16.69 0.514 0.834 1.344 0.148 0.133 0.673
2006.4479 39.04 16.69 0.164 0.460 -0.364 0.163 0.142 0.734
2006.4753 39.04 16.69 -0.141 0.640 -0.427 0.165 0.148 0.746
2006.5027 39.04 16.69 -0.312 0.747 0.289 0.171 0.154 0.774
2006.5301 39.04 16.69 -0.374 0.579 -2.104 0.202 0.184 0.914
2006.5575 39.04 16.69 -0.155 0.281 3.109 0.161 0.146 0.733
2006.5849 39.04 16.69 -0.447 0.153 2.057 0.166 0.150 0.753
2006.6123 39.04 16.69 -0.460 0.109 -1.267 0.203 0.187 0.919
2006.6397 39.04 16.69 -0.508 -0.414 -0.908 0.172 0.158 0.783
2006.6671 39.04 16.69 -0.479 -0.631 1.336 0.157 0.143 0.715
2006.6945 39.04 16.69 -0.572 -0.531 0.587 0.200 0.183 0.905
2006.7219 39.04 16.69 -0.632 -0.469 -0.112 0.189 0.170 0.853
2006.7493 39.04 16.69 -0.525 -0.812 -1.447 0.224 0.203 1.010
2006.7767 39.04 16.69 -0.450 0.021 0.994 0.194 0.177 0.879
2006.8041 39.04 16.69 -0.510 -0.775 -0.308 0.157 0.142 0.713
2006.8315 39.04 16.69 -0.557 -0.429 -2.553 0.182 0.165 0.824
2006.8589 39.04 16.69 -0.797 -0.111 0.762 0.177 0.161 0.803
2006.8863 39.04 16.69 -0.633 -0.050 -2.138 0.170 0.153 0.771
2006.9137 39.04 16.69 -0.647 0.202 -2.048 0.166 0.148 0.750
2006.9411 39.04 16.69 -0.264 0.391 -0.077 0.163 0.145 0.738
2006.9685 39.04 16.69 0.112 0.173 0.331 0.163 0.143 0.735
2006.9959 39.04 16.69 -0.052 0.047 1.221 0.163 0.140 0.730
2007.0233 39.04 16.69 -0.202 0.068 0.018 0.152 0.128 0.680
2007.0507 39.04 16.69 0.105 0.492 -1.410 0.158 0.135 0.708
2007.0781 39.04 16.69 -0.082 0.652 -1.762 0.161 0.143 0.728
2007.1055 39.04 16.69 0.472 0.071 2.525 0.144 0.127 0.653
2007.1329 39.04 16.69 0.062 0.378 -2.916 0.157 0.138 0.709
2007.1603 39.04 16.69 0.232 0.808 -0.371 0.149 0.132 0.676
2007.1877 39.04 16.69 0.385 0.532 -1.865 0.192 0.174 0.866
2007.2151 39.04 16.69 0.658 0.335 1.239 0.171 0.155 0.774
2007.2425 39.04 16.69 0.440 0.833 -0.982 0.164 0.149 0.745
2007.2699 39.04 16.69 0.576 0.486 1.549 0.132 0.116 0.600
2007.2973 39.04 16.69 0.363 0.625 1.898 0.124 0.109 0.567
2007.3247 39.04 16.69 0.443 0.517 2.308 0.151 0.136 0.687
2007.3521 39.04 16.69 0.154 0.459 1.268 0.165 0.150 0.750
2007.3795 39.04 16.69 0.056 0.299 2.049 0.173 0.158 0.786
2007.4068 39.04 16.69 0.118 0.351 1.729 0.145 0.130 0.659
2007.4342 39.04 16.69 -0.186 0.440 3.091 0.139 0.124 0.632
2007.4616 39.04 16.69 -0.054 0.525 1.448 0.181 0.165 0.821
2007.4890 39.04 16.69 -0.237 0.246 -0.398 0.140 0.124 0.635
2007.5164 39.04 16.69 -0.148 -0.243 1.378 0.147 0.132 0.669
2007.5438 39.04 16.69 -0.319 -0.386 2.182 0.143 0.128 0.650
2007.5712 39.04 16.69 -0.632 -0.547 2.670 0.147 0.131 0.667
2007.5986 39.04 16.69 -0.813 -0.702 3.108 0.179 0.161 0.811
2007.6260 39.04 16.69 -0.903 -0.701 3.609 0.147 0.130 0.667
2007.6534 39.04 16.69 -0.830 -0.749 5.003 0.149 0.133 0.677
2007.6808 39.04 16.69 -0.977 -0.730 5.414 0.157 0.139 0.711
2007.7082 39.04 16.69 -0.710 -0.836 4.904 0.118 0.100 0.536
2007.7356 39.04 16.69 -0.658 -0.558 3.959 0.162 0.142 0.729
2007.7630 39.04 16.69 -1.153 -0.413 0.163 0.126 0.107 0.570
2007.7904 39.04 16.69 -0.964 -0.602 0.816 0.159 0.141 0.718
2007.8178 39.04 16.69 -0.951 -0.338 2.339 0.182 0.164 0.822
2007.8452 39.04 16.69 -0.613 -0.318 1.446 0.149 0.132 0.676
2007.8726 39.04 16.69 -0.556 0.058 -0.173 0.173 0.154 0.783
2007.9000 39.04 16.69 -0.491 -0.295 -1.596 0.185 0.159 0.825
2007.9274 39.04 16.69 -0.171 -0.405 1.332 0.179 0.161 0.812
2007.9548 39.04 16.69 -0.311 -0.163 -0.911 0.135 0.120 0.616
2007.9822 39.04 16.69 -0.205 0.206 -2.029 0.165 0.149 0.752
2008.0096 39.04 16.69 0.125 0.076 -0.007 0.145 0.131 0.662
2008.0370 39.04 16.69 -0.185 0.408 -2.226 0.149 0.135 0.681
2008.0644 39.04 16.69 -0.042 0.205 -0.660 0.171 0.157 0.780
2008.0918 39.04 16.69 0.025 0.116 1.452 0.139 0.124 0.633
2008.1192 39.04 16.69 0.201 0.305 1.902 0.161 0.147 0.736
2008.1466 39.04 16.69 0.466 -0.073 3.753 0.187 0.172 0.852
2008.1740 39.04 16.69 0.185 0.656 1.653 0.164 0.150 0.748
2008.2014 39.04 16.69 0.380 0.367 2.270 0.175 0.161 0.798
2008.2288 39.04 16.69 0.556 0.516 0.287 0.206 0.186 0.934
2008.2562 39.04 16.69 0.396 0.732 1.456 0.191 0.174 0.869
2008.2836 39.04 16.69 0.409 0.690 -0.164 0.230 0.209 1.042
2008.3110 39.04 16.69 0.157 0.737 0.298 0.237 0.216 1.073
2008.3384 39.04 16.69 0.372 0.731 1.383 0.176 0.160 0.797
2008.3658 39.04 16.69 0.263 0.339 1.720 0.180 0.162 0.815
2008.3932 39.04 16.69 -0.124 0.377 0.494 0.164 0.146 0.744
2008.4205 39.04 16.69 -0.041 -0.221 -0.130 0.144 0.127 0.652
2008.4479 39.04 16.69 0.032 -0.178 2.681 0.145 0.130 0.660
2008.4753 39.04 16.69 -0.347 -0.409 0.990 0.141 0.126 0.642
2008.5027 39.04 16.69 -0.355 -0.347 2.007 0.173 0.154 0.781
2008.5301 39.04 16.69 -0.524 -0.504 1.945 0.215 0.191 0.967
2008.5575 39.04 16.69 -0.454 -0.455 4.888 0.141 0.122 0.637
2008.5849 39.04 16.69 -0.521 -0.323 4.634 0.158 0.141 0.714
2008.6123 39.04 16.69 -0.609 -0.715 4.750 0.133 0.116 0.602
2008.6397 39.04 16.69 -1.030 -0.791 3.870 0.146 0.128 0.657
2008.6671 39.04 16.69 -0.735 -0.524 5.062 0.140 0.122 0.632
2008.6945 39.04 16.69 -0.917 -0.513 2.759 0.135 0.118 0.612
2008.7219 39.04 16.69 -0.741 -0.756 2.373 0.155 0.138 0.700
2008.7493 39.04 16.69 -0.592 -0.900 3.571 0.140 0.125 0.637
2008.7767 39.04 16.69 -0.645 -0.746 3.307 0.163 0.147 0.737
2008.8041 39.04 16.69 -0.815 -1.055 2.563 0.164 0.148 0.742
2008.8315 39.04 16.69 -0.833 -0.644 1.319 0.185 0.167 0.838
2008.8589 39.04 16.69 -0.952 -0.284 0.903 0.215 0.196 0.977
2008.8863 39.04 16.69 -0.668 -0.906 2.250 0.207 0.188 0.938
2008.9137 39.04 16.69 -0.319 -0.446 -1.346 0.197 0.180 0.894
2008.9411 39.04 16.69 -0.449 -0.268 -1.896 0.206 0.187 0.937
2008.9685 39.04 16.69 -0.145 -0.273 -1.156 0.193 0.175 0.877
2008.9945 39.04 16.69 -0.059 -0.756 1.730 0.163 0.148 0.744
2009.0205 39.04 16.69 0.274 -0.261 1.426 0.160 0.147 0.731
2009.0479 39.04 16.69 0.356 -0.185 1.372 0.160 0.147 0.732
2009.0753 39.04 16.69 0.262 -0.097 -3.038 0.154 0.140 0.705
2009.1027 39.04 16.69 0.350 0.277 -3.288 0.191 0.176 0.871
2009.1301 39.04 16.69 0.234 0.862 -3.922 0.153 0.139 0.698
2009.1575 39.04 16.69 0.547 0.498 1.413 0.156 0.141 0.712
2009.1849 39.04 16.69 0.975 0.386 -0.271 0.178 0.164 0.811
2009.2123 39.04 16.69 0.775 0.671 -0.496 0.155 0.137 0.700
2009.2397 39.04 16.69 0.808 0.471 -0.806 0.174 0.158 0.790
2009.2671 39.04 16.69 0.666 0.335 -0.563 0.146 0.132 0.664
2009.2945 39.04 16.69 0.521 0.319 -1.272 0.149 0.135 0.680
2009.3219 39.04 16.69 0.282 0.131 -1.286 0.156 0.141 0.710
2009.3493 39.04 16.69 0.237 0.653 -0.445 0.143 0.129 0.653
2009.3767 39.04 16.69 0.233 0.245 0.687 0.151 0.135 0.685
2009.4041 39.04 16.69 0.273 0.237 1.873 0.133 0.118 0.608
2009.4315 39.04 16.69 0.404 -0.244 1.385 0.152 0.137 0.692
2009.4589 39.04 16.69 0.014 0.095 0.770 0.130 0.114 0.592
2009.4863 39.04 16.69 -0.024 -0.113 0.401 0.143 0.126 0.649
2009.5137 39.04 16.69 -0.016 -0.344 0.607 0.138 0.119 0.624
2009.5411 39.04 16.69 -0.099 -0.119 2.676 0.169 0.148 0.762
2009.5685 39.04 16.69 -0.158 0.090 3.189 0.182 0.159 0.820
2009.5959 39.04 16.69 -0.127 -0.046 3.137 0.160 0.139 0.721
2009.6233 39.04 16.69 -0.283 -0.668 2.717 0.165 0.145 0.743
2009.6507 39.04 16.69 -0.531 -0.883 2.306 0.159 0.140 0.716
2009.6781 39.04 16.69 -0.446 -0.763 0.849 0.169 0.151 0.764
2009.7055 39.04 16.69 -0.621 -0.608 2.508 0.175 0.157 0.790
2009.7329 39.04 16.69 -0.865 -0.535 -0.134 0.169 0.151 0.764
2009.7603 39.04 16.69 -0.755 -0.334 -0.631 0.192 0.173 0.869
2009.7877 39.04 16.69 -0.696 -0.429 2.664 0.177 0.160 0.803
2009.8151 39.04 16.69 -0.591 -0.858 -0.239 0.190 0.172 0.859
2009.8425 39.04 16.69 -0.691 -0.351 -1.824 0.173 0.156 0.784
2009.8699 39.04 16.69 -0.596 -0.325 -1.562 0.165 0.149 0.750
2009.8973 39.04 16.69 -0.290 -0.443 -0.384 0.155 0.139 0.703
2009.9247 39.04 16.69 -0.105 0.088 0.119 0.156 0.136 0.705
2009.9521 39.04 16.69 -0.027 0.201 -2.670 0.145 0.130 0.660
2009.9795 39.04 16.69 0.055 0.058 -4.638 0.149 0.133 0.678
2010.0068 39.04 16.69 0.078 0.541 -4.966 0.187 0.170 0.849
2010.0342 39.04 16.69 0.236 0.604 -7.231 0.147 0.132 0.669
2010.0616 39.04 16.69 0.369 0.006 -5.767 0.151 0.135 0.685
2010.0890 39.04 16.69 0.693 0.609 -1.533 0.179 0.163 0.812
2010.1164 39.04 16.69 0.639 0.717 -3.155 0.185 0.168 0.838
2010.1438 39.04 16.69 0.829 0.097 -6.962 0.179 0.161 0.810
2010.1712 39.04 16.69 0.402 0.707 -7.494 0.171 0.153 0.775
2010.1986 39.04 16.69 0.835 0.731 -3.310 0.164 0.147 0.743
2010.2260 39.04 16.69 0.635 0.572 -2.266 0.179 0.161 0.811
2010.2534 39.04 16.69 0.707 0.771 -2.800 0.185 0.165 0.836
2010.2808 39.04 16.69 1.112 0.660 -0.633 0.144 0.126 0.651
2010.3082 39.04 16.69 0.882 0.419 -4.196 0.150 0.132 0.679
2010.3356 39.04 16.69 0.714 0.346 -1.779 0.138 0.119 0.626
2010.3630 39.04 16.69 0.614 0.340 -2.577 0.147 0.127 0.663
2010.3904 39.04 16.69 0.455 0.739 -0.301 0.153 0.124 0.676
2010.4178 39.04 16.69 0.650 0.553 2.276 0.156 0.135 0.703
2010.4452 39.04 16.69 0.379 0.317 -1.261 0.139 0.120 0.629
2010.4726 39.04 16.69 0.217 0.459 -1.803 0.126 0.107 0.571
2010.5000 39.04 16.69 0.614 0.218 -0.950 0.141 0.122 0.637
2010.5274 39.04 16.69 0.282 -0.054 3.014 0.214 0.194 0.965
2010.5548 39.04 16.69 0.035 -0.167 -0.064 0.139 0.124 0.631
2010.5822 39.04 16.69 -0.178 -0.036 0.396 0.126 0.112 0.574
2010.6096 39.04 16.69 -0.086 -0.519 0.440 0.160 0.145 0.728
2010.6370 39.04 16.69 -0.263 -0.960 1.907 0.144 0.130 0.655
2010.6644 39.04 16.69 -0.292 -1.061 1.947 0.135 0.121 0.617
2010.6918 39.04 16.69 -0.474 -0.790 1.856 0.161 0.146 0.731
2010.7192 39.04 16.69 -0.455 -0.987 2.517 0.150 0.136 0.682
2010.7466 39.04 16.69 -0.721 -0.759 0.481 0.173 0.158 0.784
2010.7740 39.04 16.69 -0.478 -1.041 0.541 0.143 0.128 0.652
2010.8014 39.04 16.69 -0.507 -0.400 -1.367 0.136 0.122 0.620
2010.8288 39.04 16.69 -0.571 -0.421 0.306 0.154 0.140 0.700
2010.8562 39.04 16.69 -0.107 -0.390 -0.484 0.152 0.137 0.689
2010.8836 39.04 16.69 -0.365 -0.307 -4.413 0.142 0.127 0.645
2010.9110 39.04 16.69 -0.047 -0.413 -6.496 0.154 0.139 0.698
2010.9384 39.04 16.69 0.087 -0.680 -7.134 0.159 0.144 0.723
2010.9658 39.04 16.69 0.166 -0.461 -4.350 0.174 0.158 0.789
2010.9932 39.04 16.69 0.384 0.033 -7.457 0.156 0.102 0.646
2011.1027 39.04 16.69 0.637 -0.296 -0.469 0.150 0.120 0.667
2011.1301 39.04 16.69 0.749 0.082 -3.214 0.209 0.187 0.941
2011.1575 39.04 16.69 0.676 0.124 -3.751 0.143 0.125 0.648
2011.1849 39.04 16.69 0.842 0.231 -0.155 0.117 0.099 0.530
2011.2123 39.04 16.69 0.736 0.156 0.063 0.178 0.160 0.803
2011.2397 39.04 16.69 0.951 0.081 1.987 0.184 0.167 0.831
2011.2671 39.04 16.69 0.700 0.609 2.080 0.151 0.135 0.684
2011.2945 39.04 16.69 0.502 0.506 0.292 0.173 0.157 0.785
2011.3219 39.04 16.69 0.506 0.748 -0.967 0.163 0.148 0.738
2011.3493 39.04 16.69 0.403 0.576 -0.843 0.147 0.133 0.670
2011.3767 39.04 16.69 0.603 0.527 1.282 0.171 0.155 0.773
2011.4041 39.04 16.69 0.430 0.486 0.950 0.152 0.136 0.691
2011.4315 39.04 16.69 0.032 0.555 -0.069 0.163 0.132 0.718
2011.5137 39.04 16.69 0.027 -0.291 0.495 0.145 0.124 0.652
2011.5411 39.04 16.69 0.090 -0.103 2.361 0.150 0.133 0.678
2011.5685 39.04 16.69 -0.254 -0.506 0.209 0.148 0.130 0.668
2011.5959 39.04 16.69 -0.262 -0.534 0.088 0.157 0.139 0.709
2011.6233 39.04 16.69 -0.289 -0.761 0.950 0.158 0.139 0.713
2011.6507 39.04 16.69 -0.476 -0.717 1.556 0.183 0.164 0.824
2011.6781 39.04 16.69 -0.580 -0.924 2.557 0.170 0.152 0.767
2011.7055 39.04 16.69 -0.301 -0.945 4.270 0.170 0.153 0.766
2011.7329 39.04 16.69 -0.540 -0.758 0.943 0.194 0.177 0.878
2011.7603 39.04 16.69 -0.532 -0.697 3.207 0.168 0.152 0.760
2011.7877 39.04 16.69 -0.740 -0.243 2.045 0.178 0.162 0.805
2011.8151 39.04 16.69 -0.635 -0.742 2.714 0.175 0.158 0.791
2011.8425 39.04 16.69 -0.824 -0.747 0.507 0.188 0.172 0.851
2011.8699 39.04 16.69 -0.535 -0.383 2.823 0.186 0.162 0.830
2011.9521 39.04 16.69 -0.364 -0.911 -1.212 0.134 0.097 0.575
2011.9795 39.04 16.69 -0.412 -0.397 -1.820 0.154 0.136 0.692
2012.0068 39.04 16.69 -0.105 0.011 0.546 0.145 0.125 0.647
2012.0342 39.04 16.69 -0.397 -0.285 -2.468 0.172 0.148 0.763
2012.0616 39.04 16.69 0.126 -0.255 1.264 0.151 0.129 0.671
2012.0890 39.04 16.69 0.173 0.371 1.473 0.150 0.127 0.663
2012.1164 39.04 16.69 0.383 0.397 2.472 0.148 0.123 0.652
2012.1438 39.04 16.69 0.400 0.312 1.399 0.153 0.126 0.672
2012.1712 39.04 16.69 0.560 0.658 2.109 0.148 0.120 0.648
2012.1986 39.04 16.69 0.315 0.368 1.425 0.135 0.108 0.590
2012.2260 39.04 16.69 0.265 0.448 0.373 0.136 0.110 0.596
2012.2534 39.04 16.69 0.280 0.303 3.554 0.132 0.107 0.579
2012.2808 39.04 16.69 0.472 0.551 0.755 0.124 0.099 0.541
2012.3082 39.04 16.69 0.162 0.378 -0.647 0.159 0.102 0.650
2012.3904 39.04 16.69 0.013 0.164 -5.117 0.157 0.120 0.681
2012.4178 39.04 16.69 -0.065 0.486 -1.406 0.114 0.091 0.500
2012.4452 39.04 16.69 0.129 0.111 -2.427 0.113 0.089 0.497
2012.4726 39.04 16.69 -0.012 -0.249 0.034 0.122 0.097 0.532
2012.5000 39.04 16.69 -0.166 -0.251 1.321 0.116 0.092 0.510
2012.5274 39.04 16.69 -0.476 -0.186 2.587 0.123 0.098 0.538
2012.5548 39.04 16.69 -0.464 -0.374 4.529 0.123 0.098 0.537
2012.5822 39.04 16.69 -0.693 -0.539 3.649 0.129 0.104 0.565
2012.6096 39.04 16.69 -0.706 -0.347 3.068 0.127 0.104 0.558
2012.6370 39.04 16.69 -0.805 -0.820 3.160 0.117 0.096 0.519
2012.6644 39.04 16.69 -0.939 -0.202 3.703 0.127 0.106 0.563
2012.6918 39.04 16.69 -0.933 -0.670 2.894 0.130 0.111 0.579
2012.7192 39.04 16.69 -0.921 -0.356 2.124 0.154 0.135 0.687
2012.7466 39.04 16.69 -1.043 -0.775 1.277 0.124 0.087 0.530
2012.8562 39.04 16.69 -0.759 -0.679 -1.780 0.162 0.140 0.721
2012.8836 39.04 16.69 -0.541 -0.870 2.076 0.149 0.134 0.674
2012.9110 39.04 16.69 -0.600 -0.431 -0.908 0.141 0.128 0.641
2012.9384 39.04 16.69 -0.360 0.030 -1.323 0.139 0.122 0.628
2012.9658 39.04 16.69 -0.380 -0.082 -2.278 0.151 0.138 0.686
2012.9918 39.04 16.69 -0.207 -0.133 -3.635 0.077 0.068 0.360
2013.0178 39.04 16.69 0.050 -0.134 -0.852 0.090 0.080 0.414
2013.0452 39.04 16.69 0.127 0.116 -1.138 0.090 0.080 0.413
2013.0726 39.04 16.69 -0.129 0.224 -4.599 0.083 0.073 0.384
2013.1000 39.04 16.69 0.411 0.509 -1.439 0.085 0.075 0.393
2013.1274 39.04 16.69 0.619 0.317 -0.151 0.079 0.070 0.369
2013.1548 39.04 16.69 0.600 0.231 0.451 0.078 0.063 0.355
2013.2644 39.04 16.69 0.804 0.732 -2.824 0.096 0.047 0.379
2013.2918 39.04 16.69 1.033 0.432 -3.451 0.081 0.072 0.378
2013.3192 39.04 16.69 0.784 0.450 0.433 0.089 0.080 0.412
2013.3466 39.04 16.69 0.471 0.608 -1.108 0.091 0.082 0.422
2013.3740 39.04 16.69 0.320 0.144 -2.097 0.079 0.071 0.369
2013.4014 39.04 16.69 0.444 0.097 -2.753 0.081 0.073 0.379
2013.4288 39.04 16.69 0.414 -0.032 -2.691 0.072 0.064 0.341
2013.4562 39.04 16.69 0.298 -0.088 -0.003 0.074 0.065 0.346
2013.4836 39.04 16.69 0.171 -0.128 0.717 0.075 0.067 0.353
2013.5110 39.04 16.69 0.248 -0.541 3.204 0.084 0.075 0.391
2013.5384 39.04 16.69 -0.104 -0.280 1.831 0.084 0.072 0.386
2013.5658 39.04 16.69 0.125 -0.202 1.615 0.087 0.077 0.401
2013.7575 39.04 16.69 -0.809 -0.637 0.945 0.084 0.072 0.387
2013.7849 39.04 16.69 -0.448 -0.890 1.383 0.086 0.074 0.396
2013.8123 39.04 16.69 -0.773 -0.629 0.246 0.079 0.068 0.365
2013.8397 39.04 16.69 -0.306 -0.857 0.496 0.080 0.069 0.369
2013.8671 39.04 16.69 -0.693 -0.426 -0.944 0.086 0.073 0.393
2013.8945 39.04 16.69 -0.266 -0.464 0.924 0.079 0.068 0.366
2013.9219 39.04 16.69 -0.036 -0.780 0.565 0.071 0.061 0.333
2013.9493 39.04 16.69 0.105 -0.185 0.885 0.076 0.065 0.350
2013.9767 39.04 16.69 0.010 -0.321 2.413 0.077 0.066 0.356
2014.0041 39.04 16.69 0.041 -0.156 -1.696 0.074 0.063 0.344
2014.0315 39.04 16.69 0.157 -0.459 -1.572 0.077 0.066 0.355
2014.1685 39.04 16.69 0.680 0.294 -2.085 0.081 0.070 0.375
2014.1959 39.04 16.69 0.673 0.106 -0.643 0.081 0.072 0.377
2014.2233 39.04 16.69 0.801 0.005 -0.763 0.077 0.068 0.361
2014.2507 39.04 16.69 0.297 0.173 -1.238 0.071 0.062 0.334
2014.2781 39.04 16.69 0.345 0.436 -2.122 0.075 0.066 0.351
2014.3055 39.04 16.69 0.524 -0.161 -2.228 0.072 0.064 0.339
2014.3329 39.04 16.69 0.361 0.102 -0.729 0.060 0.052 0.287
2014.3603 39.04 16.69 0.627 0.429 -0.010 0.068 0.059 0.319
2014.3877 39.04 16.69 0.492 -0.100 1.330 0.068 0.059 0.319
2014.4151 39.04 16.69 0.374 0.042 2.434 0.068 0.059 0.318
2014.4425 39.04 16.69 0.567 0.029 1.355 0.072 0.062 0.335
2014.4699 39.04 16.69 0.194 -0.012 -0.108 0.071 0.061 0.333
2014.5795 39.04 16.69 -0.051 -0.738 0.221 0.066 0.051 0.306
2014.6068 39.04 16.69 0.136 -0.630 3.660 0.064 0.054 0.299
2014.6342 39.04 16.69 0.067 -0.406 4.261 0.058 0.049 0.277
2014.6616 39.04 16.69 -0.099 -0.914 1.797 0.064 0.055 0.302
2014.6890 39.04 16.69 -0.138 -0.832 1.741 0.062 0.054 0.295
2014.7164 39.04 16.69 -0.022 -0.946 1.440 0.061 0.052 0.290
2014.7438 39.04 16.69 -0.053 -1.098 3.352 0.066 0.057 0.310
2014.7712 39.04 16.69 -0.217 -1.110 1.129 0.065 0.056 0.307
2014.7986 39.04 16.69 -0.167 -0.968 -1.035 0.059 0.050 0.279
2014.8260 39.04 16.69 -0.053 -1.076 2.826 0.059 0.049 0.278
2014.8534 39.04 16.69 0.066 -1.222 3.013 0.062 0.052 0.292
2014.8808 39.04 16.69 -0.138 -0.694 -1.842 0.062 0.052 0.293
2014.9082 39.04 16.69 -0.071 -0.694 -0.484 0.063 0.053 0.297
2015.0452 39.04 16.69 0.827 -0.560 0.742 0.049 0.038 0.235
2015.0726 39.04 16.69 0.821 -0.004 -0.633 0.053 0.040 0.246
2015.1000 39.04 16.69 0.689 0.368 -3.165 0.047 0.037 0.228
2015.1274 39.04 16.69 0.943 0.280 -1.189 0.044 0.034 0.216
2015.1548 39.04 16.69 1.197 0.200 0.705 0.051 0.039 0.238
2015.1822 39.04 16.69 1.101 0.417 -0.934 0.048 0.037 0.229
2015.2096 39.04 16.69 0.967 -0.056 2.777 0.063 0.049 0.288
2015.2370 39.04 16.69 0.986 0.048 -1.727 0.067 0.056 0.311
2015.2644 39.04 16.69 1.024 0.087 -1.106 0.059 0.050 0.281
2015.2918 39.04 16.69 1.137 0.418 1.177 0.060 0.051 0.284
2015.3192 39.04 16.69 0.931 0.371 0.495 0.058 0.049 0.275
2015.3466 39.04 16.69 0.878 0.329 -2.372 0.062 0.053 0.294
2015.4836 39.04 16.69 0.335 0.025 -1.474 0.060 0.043 0.275
2015.5110 39.04 16.69 0.464 -0.327 -2.049 0.057 0.044 0.267
2015.5384 39.04 16.69 0.333 -0.400 2.474 0.062 0.049 0.289
2015.5658 39.04 16.69 -0.176 -0.441 0.520 0.062 0.052 0.290
2015.5932 39.04 16.69 -0.156 -0.878 2.468 0.064 0.054 0.298
2015.6205 39.04 16.69 -0.347 -0.814 2.618 0.062 0.052 0.291
2015.6479 39.04 16.69 -0.367 -0.605 2.917 0.060 0.050 0.283
2015.6753 39.04 16.69 -0.496 -0.840 3.480 0.058 0.048 0.274
2015.7027 39.04 16.69 -0.553 -0.637 -0.715 0.063 0.053 0.295
2015.7301 39.04 16.69 -0.592 -1.094 -4.552 0.063 0.052 0.295
2015.9493 39.04 16.69 -0.174 -0.425 -1.596 0.061 0.052 0.289
2015.9767 39.04 16.69 0.058 -0.604 -1.257 0.064 0.054 0.298
2016.0041 39.04 16.69 0.198 -0.642 -1.353 0.058 0.049 0.274
2016.0315 39.04 16.69 0.038 0.138 0.956 0.055 0.046 0.262
2016.0589 39.04 16.69 0.150 -0.514 -1.863 0.056 0.047 0.268
2016.0863 39.04 16.69 0.432 -0.832 -1.358 0.051 0.043 0.249
2016.1137 39.04 16.69 0.406 -0.275 -1.227 0.057 0.048 0.272
2016.1411 39.04 16.69 0.502 0.343 0.279 0.067 0.057 0.311
2016.1685 39.04 16.69 0.538 -0.131 -0.358 0.072 0.062 0.333
2016.1959 39.04 16.69 0.636 0.465 -4.453 0.071 0.063 0.330
2016.2233 39.04 16.69 1.205 0.013 0.878 0.071 0.064 0.335
2016.2507 39.04 16.69 0.947 0.501 -2.916 0.060 0.050 0.284
2016.3603 39.04 16.69 0.768 0.076 -0.448 0.055 0.047 0.266
2016.3877 39.04 16.69 0.591 0.191 -1.424 0.065 0.056 0.304
2016.4151 39.04 16.69 0.575 0.272 -2.632 0.064 0.054 0.299
2016.4425 39.04 16.69 0.471 -0.323 -2.973 0.068 0.059 0.317
2016.4699 39.04 16.69 0.445 0.186 -4.363 0.067 0.057 0.311
