2002.5877 39.04 16.69 -25.86509975810867 9.98533347661929
2002.6151 39.04 16.69 -43.59508996739080 9.71850170180229
2002.6425 39.04 16.69 -46.64226202905908 9.91823545003090
2002.6699 39.04 16.69 -40.05323553278119 8.31207941284026
2002.6973 39.04 16.69 -2.98136303005123 13.22054101766009
2002.7247 39.04 16.69 -30.77715639335381 9.43367117166863
2002.7521 39.04 16.69 -35.24934955592724 8.63815039088237
2002.7795 39.04 16.69 -13.11557764116586 9.89594842492121
2002.8068 39.04 16.69 -18.52950047883687 8.97146173271338
2002.8342 39.04 16.69 -43.41869474820635 8.78523294409227
2002.8616 39.04 16.69 -41.32361082153196 8.37320555995718
2002.8890 39.04 16.69 -18.74693257496959 8.94335853348620
2002.9164 39.04 16.69 -21.61470049983344 9.24034487976234
2003.0260 39.04 16.69 -8.14655739624437 10.30425590011827
2003.0534 39.04 16.69 -40.41791421137852 18.11654371240582
2003.0808 39.04 16.69 2.26983517223584 14.90001969367793
2003.1082 39.04 16.69 -8.16685903680397 8.26600324291802
2003.1356 39.04 16.69 -15.54239695043887 7.60311496603678
2003.1630 39.04 16.69 -33.18035741598008 8.27707450721073
2003.1904 39.04 16.69 -28.09788423731115 9.67965394174015
2003.2178 39.04 16.69 -19.68214383802287 8.17380406568548
2003.2452 39.04 16.69 -15.46098808043219 8.12630697362888
2003.2726 39.04 16.69 -33.86754551617896 7.90802112089921
2003.3000 39.04 16.69 -33.72861211505416 7.76104673061355
2003.3274 39.04 16.69 -18.19060044188273 10.43573982429266
2003.3548 39.04 16.69 -18.71250020637866 11.89070090405973
2003.3822 39.04 16.69 -25.70002431954554 10.05505001904890
2003.5192 39.04 16.69 -28.30697119633656 11.62216861144384
2003.5466 39.04 16.69 -22.05100086884513 13.27852993477100
2003.5740 39.04 16.69 -21.27770752319757 15.92747905865787
2003.6014 39.04 16.69 -40.18906531837846 13.31699078100196
2003.6288 39.04 16.69 -27.65465872384747 12.23366976707799
2003.6562 39.04 16.69 -46.00243404015427 13.37567406396974
2003.6836 39.04 16.69 -26.44734908240894 13.44386149103005
2003.7110 39.04 16.69 -27.18775428236190 9.89349890373901
2003.7384 39.04 16.69 -37.11152391426674 12.57492273374171
2003.7658 39.04 16.69 -27.90381373836876 11.44081917674626
2003.7932 39.04 16.69 -19.24157891484835 13.03019067790299
2003.8205 39.04 16.69 -10.61832812108784 13.81638342991142
2003.8479 39.04 16.69 -0.89737083361144 11.64558897420524
2003.8753 39.04 16.69 -5.18576315315594 12.87036626262652
2003.9027 39.04 16.69 9.89326403642905 11.27183179402840
2003.9301 39.04 16.69 12.07956027243046 12.05271010550659
2003.9575 39.04 16.69 -11.87471449562349 14.02872275919752
2003.9849 39.04 16.69 1.13190725577212 13.09797956928073
2004.0123 39.04 16.69 -16.53834417469797 14.06406378200874
2004.0397 39.04 16.69 -2.34682705796918 10.65167884250895
2004.0945 39.04 16.69 -28.44499013164772 9.93396923107563
2004.1219 39.04 16.69 -8.81324852395177 11.52205167606057
2004.1493 39.04 16.69 -31.76449620377664 13.74037224312985
2004.1767 39.04 16.69 -13.50133524665556 15.12915291035099
2004.2041 39.04 16.69 -1.07941638669241 11.84188009812974
2004.2315 39.04 16.69 -34.82140297715782 12.02649876565659
2004.2589 39.04 16.69 -23.51605400849551 12.37460317198069
2004.2863 39.04 16.69 -25.10342252881756 12.44690474950959
2004.3137 39.04 16.69 14.53462555620996 11.75274030901448
2004.3411 39.04 16.69 1.93630045071513 13.04566230198441
2004.3685 39.04 16.69 -1.04429801123806 12.26924457563526
2004.3959 39.04 16.69 -7.14822046900763 10.54822673309516
2004.4233 39.04 16.69 -18.49784088158378 10.08931781067593
2004.4507 39.04 16.69 2.14322791879135 9.03235611417259
2004.4781 39.04 16.69 -1.51159903510570 10.05250828437642
2004.5055 39.04 16.69 -2.31596669877851 9.74540799397157
2004.5329 39.04 16.69 -26.86046830175375 9.10028028644472
2004.5603 39.04 16.69 -25.92102374518564 9.45079653101565
2004.5877 39.04 16.69 -41.29595049253791 9.47505675659721
2004.6151 39.04 16.69 14.25440698929898 10.50280076194094
2004.6425 39.04 16.69 -51.84248868859861 8.74365237744263
2004.6699 39.04 16.69 -65.44266849860277 8.72180179905767
2004.6973 39.04 16.69 -49.91336204872217 8.09566744958862
2004.7247 39.04 16.69 -37.28486856927912 9.47191926503669
2004.7521 39.04 16.69 -44.05043821701054 8.97870886645784
2004.7795 39.04 16.69 -37.69245110904394 8.83075701435170
2004.8068 39.04 16.69 -18.76402644148879 9.97879995062453
2004.8342 39.04 16.69 -8.76654616868554 9.87321700357661
2004.8616 39.04 16.69 0.26144302490672 8.48947588096361
2004.8890 39.04 16.69 10.36221360321886 8.53662226079070
2004.9164 39.04 16.69 6.44927965121052 9.48828233129538
2004.9438 39.04 16.69 0.14307582190573 10.23792678867124
2004.9712 39.04 16.69 -2.15867987853525 9.64412117748701
2004.9973 39.04 16.69 -13.19934839368123 9.12604854257093
2005.0233 39.04 16.69 -14.29453992718957 11.05084414167255
2005.0507 39.04 16.69 0.86319086573263 17.37976840669660
2005.0781 39.04 16.69 3.74091106672560 12.65502983017014
2005.1055 39.04 16.69 -13.92468864297859 12.50954977886219
2005.1329 39.04 16.69 -44.27997290011373 12.83453736520832
2005.1603 39.04 16.69 -3.60965514488953 11.14203886721845
2005.1877 39.04 16.69 -4.89918770457437 10.98950969942175
2005.2151 39.04 16.69 -14.01303087372681 10.10536708906444
2005.2425 39.04 16.69 3.82156257965059 9.95587133885482
2005.2699 39.04 16.69 -15.46474442878343 10.75972688596077
2005.2973 39.04 16.69 9.16089225288505 11.45599827203166
2005.3247 39.04 16.69 -9.81981176458037 12.09475898500295
2005.3521 39.04 16.69 17.05989592453610 4.28318223069962
2005.3795 39.04 16.69 5.97105476755601 11.22186968986849
2005.4068 39.04 16.69 -9.61050383898847 10.08979568290445
2005.4342 39.04 16.69 -7.42588615091277 11.56590098536318
2005.4616 39.04 16.69 -9.96607464849690 10.61848324124131
2005.4890 39.04 16.69 -14.16339396605727 10.05170622132352
2005.5164 39.04 16.69 4.61666425210964 9.98713745103832
2005.5438 39.04 16.69 -19.84357826882481 11.06470983931333
2005.5712 39.04 16.69 3.25293183054051 12.21136979252065
2005.5986 39.04 16.69 -16.63128373046198 12.49945947497253
2005.6260 39.04 16.69 -8.55665330194668 10.87908369054334
2005.6534 39.04 16.69 -31.12216004119580 11.64511003310295
2005.6808 39.04 16.69 -14.25607054048161 11.35993294250018
2005.7082 39.04 16.69 -19.76465456184201 14.22914244855143
2005.7356 39.04 16.69 -16.61211248839478 12.31897946388007
2005.7630 39.04 16.69 -14.05272706126711 12.33972207999588
2005.7904 39.04 16.69 -4.31871957997913 11.38133327321505
2005.8178 39.04 16.69 10.72726132583649 11.79459214954406
2005.8452 39.04 16.69 -36.77851428176879 12.61204428782634
2005.8726 39.04 16.69 5.11015302857013 10.83473953161922
2005.9000 39.04 16.69 4.00347116204244 10.46668725032827
2005.9274 39.04 16.69 -3.76056156377492 10.20876530455093
2005.9548 39.04 16.69 25.72690519192917 8.79815587557142
2005.9822 39.04 16.69 -5.78408754414890 9.52290750968413
2006.0096 39.04 16.69 23.03150205794573 10.96873347892877
2006.0370 39.04 16.69 8.42717904493000 14.22897594437940
2006.0644 39.04 16.69 18.28215724086041 14.38091443302606
2006.0918 39.04 16.69 1.58059352836238 14.50675284931316
2006.1192 39.04 16.69 -4.96590017575630 17.00425348723182
2006.1466 39.04 16.69 20.02954962569353 12.91887191176555
2006.1740 39.04 16.69 32.78710646760964 15.11565266558628
2006.2014 39.04 16.69 22.84770623713456 11.18429838014053
2006.2288 39.04 16.69 19.62733624852453 15.23010793080093
2006.2562 39.04 16.69 1.10756321211318 14.39258480791269
2006.2836 39.04 16.69 10.63779470566417 13.92737614291924
2006.3110 39.04 16.69 6.70090260902173 14.98676157035557
2006.3384 39.04 16.69 14.40203367530810 13.50188959322727
2006.3658 39.04 16.69 31.90274393398311 15.07876846017614
2006.3932 39.04 16.69 16.05510918966019 14.75231223197071
2006.4205 39.04 16.69 -10.82290381978564 14.68831339481232
2006.4479 39.04 16.69 5.13245401312370 15.61245973030671
2006.4753 39.04 16.69 0.81524691388926 16.28982045023520
2006.5027 39.04 16.69 -16.77075109456161 17.04949264806328
2006.5301 39.04 16.69 27.34897772290758 20.79626602319354
2006.5575 39.04 16.69 -17.68503332660521 16.15364692016812
2006.5849 39.04 16.69 -27.78684764089159 16.67544854541176
2006.6123 39.04 16.69 2.58294094913206 21.55714374325441
2006.6397 39.04 16.69 -5.57061718839397 17.81791708393267
2006.6671 39.04 16.69 -31.92140156756451 15.82166500666867
2006.6945 39.04 16.69 -34.20351535577291 20.84039405448935
2006.7219 39.04 16.69 -37.65290515347058 18.84888799348208
2006.7493 39.04 16.69 -11.90916963810393 23.03557283880141
2006.7767 39.04 16.69 -32.74745834371611 20.06302156142424
2006.8041 39.04 16.69 -0.39483032179620 15.70751836161317
2006.8315 39.04 16.69 16.78148104664390 18.74317233657532
2006.8589 39.04 16.69 -5.93872013815525 18.06121526580777
2006.8863 39.04 16.69 8.89362013164398 17.08972001255647
2006.9137 39.04 16.69 10.44448398568220 16.35621640013882
2006.9411 39.04 16.69 -8.34030499796255 15.98069269023552
2006.9685 39.04 16.69 9.60602024813172 15.59012495706281
2006.9959 39.04 16.69 1.78246039696893 15.10893739436798
2007.0233 39.04 16.69 -6.84042400253508 13.70196805667705
2007.0507 39.04 16.69 -5.77329029157518 14.61129899339222
2007.0781 39.04 16.69 -0.60945781241164 15.61537587174233
2007.1055 39.04 16.69 -38.60737067412717 13.69746389857443
2007.1329 39.04 16.69 5.20801746973123 15.14332352898215
2007.1603 39.04 16.69 -20.68509414429036 14.41148749515871
2007.1877 39.04 16.69 -9.35829278412805 19.72125101993968
2007.2151 39.04 16.69 -26.12450871032221 17.39179764880561
2007.2425 39.04 16.69 -6.41753956677156 16.64863405522673
2007.2699 39.04 16.69 -24.05044406465715 12.44914797332158
2007.2973 39.04 16.69 -18.54726456207018 11.67313208281597
2007.3247 39.04 16.69 -21.62796963480146 14.99168569805553
2007.3521 39.04 16.69 -15.31932598951439 16.70206082601485
2007.3795 39.04 16.69 -4.39760646598799 17.72129843151382
2007.4068 39.04 16.69 -15.40600535685277 14.23020458893738
2007.4342 39.04 16.69 -20.76148068608076 13.43123429207899
2007.4616 39.04 16.69 -9.98654682082812 18.70821570596905
2007.4890 39.04 16.69 7.09751638370396 13.45666317102579
2007.5164 39.04 16.69 -19.28793088397605 14.49088995330259
2007.5438 39.04 16.69 -9.51750022689897 13.90052118495777
2007.5712 39.04 16.69 -13.89502354533759 14.28725691637081
2007.5986 39.04 16.69 -35.06409359999529 17.99789050947123
2007.6260 39.04 16.69 -34.34818020729440 14.16123753486499
2007.6534 39.04 16.69 -38.48375112651464 14.47430559769153
2007.6808 39.04 16.69 -50.28216730041269 15.10755565686935
2007.7082 39.04 16.69 -38.16904595280558 10.36559183695367
2007.7356 39.04 16.69 -25.88021449694056 15.51423583028136
2007.7630 39.04 16.69 -5.89044177583298 11.09821382784717
2007.7904 39.04 16.69 4.83513336279463 15.47801389119852
2007.8178 39.04 16.69 -9.34163133337077 18.27395616604358
2007.8452 39.04 16.69 2.74872287034213 14.16956978641235
2007.8726 39.04 16.69 -7.18717470123739 16.78663852239994
2007.9000 39.04 16.69 3.51198391718497 17.67508990378138
2007.9274 39.04 16.69 3.90704688187343 17.60170995966813
2007.9548 39.04 16.69 5.65218538613366 12.84224546078738
2007.9822 39.04 16.69 12.79078898744293 16.26508700998892
2008.0096 39.04 16.69 -6.62878506045371 14.14994261876229
2008.0370 39.04 16.69 12.60263018280662 14.81319281434429
2008.0644 39.04 16.69 0.17708131471366 17.47534846232621
2008.0918 39.04 16.69 -10.31253348804006 13.18545102109665
2008.1192 39.04 16.69 -18.10834026599333 16.12657470001777
2008.1466 39.04 16.69 -29.06890356975569 19.09270644683533
2008.1740 39.04 16.69 -3.07006308857496 16.45424997433990
2008.2014 39.04 16.69 -23.09608560232316 18.14374308980111
2008.2288 39.04 16.69 -8.80271772610213 20.06255275168648
2008.2562 39.04 16.69 -24.06776891195620 19.05954311922117
2008.2836 39.04 16.69 -6.00661222824466 22.98981197156653
2008.3110 39.04 16.69 -4.06281316417849 24.04739604789446
2008.3384 39.04 16.69 -6.87783086542039 17.64225448997773
2008.3658 39.04 16.69 -2.40855329813522 17.82358754701728
2008.3932 39.04 16.69 -9.18804586830083 15.79018468351811
2008.4205 39.04 16.69 3.78250176079244 13.77197687701380
2008.4479 39.04 16.69 -18.41380848746075 14.28682857179628
2008.4753 39.04 16.69 -0.25533785690352 13.69364568223963
2008.5027 39.04 16.69 -11.33947017607365 16.94843092922556
2008.5301 39.04 16.69 -2.99281449856643 20.97215956392585
2008.5575 39.04 16.69 -31.94442519801776 13.14451805099713
2008.5849 39.04 16.69 -40.04617448117875 15.73639859301105
2008.6123 39.04 16.69 -30.14918393699678 12.48237102187634
2008.6397 39.04 16.69 -36.27362938548677 13.97363871677172
2008.6671 39.04 16.69 -33.30255627044605 13.25851714485353
2008.6945 39.04 16.69 -18.40269921500994 12.75004397479502
2008.7219 39.04 16.69 -19.55190322990884 15.21039577494359
2008.7493 39.04 16.69 -39.62882801655307 13.59969824681678
2008.7767 39.04 16.69 -20.11653523162304 16.39438905513246
2008.8041 39.04 16.69 -11.23240402069715 16.55887112976333
2008.8315 39.04 16.69 -4.99881791441839 18.55132669823820
2008.8589 39.04 16.69 -5.15766185625483 21.72756378647576
2008.8863 39.04 16.69 -10.72285381165817 20.83414075391264
2008.9137 39.04 16.69 20.26362475545027 19.94864237109109
2008.9411 39.04 16.69 8.38380702570325 20.52559666114302
2008.9685 39.04 16.69 21.36764341044324 19.12617435765516
2008.9945 39.04 16.69 -12.39227666169676 16.25057507773920
2009.0205 39.04 16.69 -16.20656928631750 16.17060678919503
2009.0479 39.04 16.69 -1.85274461703986 16.17288915936462
2009.0753 39.04 16.69 34.94685835311837 15.20678253936535
2009.1027 39.04 16.69 13.22162027542474 19.39065267627126
2009.1301 39.04 16.69 23.40561886365497 15.07128612531207
2009.1575 39.04 16.69 -20.21575099802505 15.20068821231502
2009.1849 39.04 16.69 6.64501069450170 18.25122632692358
2009.2123 39.04 16.69 14.34774957697123 14.85896593413058
2009.2397 39.04 16.69 7.16004229217849 17.45285587669896
2009.2671 39.04 16.69 -1.90932578421421 14.41124545097404
2009.2945 39.04 16.69 6.33683134792256 14.85671690905064
2009.3219 39.04 16.69 8.98049480179254 15.45349069691392
2009.3493 39.04 16.69 4.72477423067581 14.02418936560737
2009.3767 39.04 16.69 12.12257697932061 14.76644391453199
2009.4041 39.04 16.69 -5.03436923577475 12.69320520489430
2009.4315 39.04 16.69 14.08873417054551 15.05984525815512
2009.4589 39.04 16.69 7.48643868847361 12.26708929138062
2009.4863 39.04 16.69 7.24806066750432 13.65591839977470
2009.5137 39.04 16.69 9.12177615521171 12.74949411062766
2009.5411 39.04 16.69 -0.33606423838262 16.04247647090454
2009.5685 39.04 16.69 -18.76676195456614 17.20386576873566
2009.5959 39.04 16.69 -25.26055147731211 14.88702164578427
2009.6233 39.04 16.69 -20.49921386508118 15.87602667680191
2009.6507 39.04 16.69 -20.05185061662419 15.32525326484440
2009.6781 39.04 16.69 -1.70836706439546 16.65092955535050
2009.7055 39.04 16.69 -27.96519523692657 17.53377728127897
2009.7329 39.04 16.69 -11.69314954813750 16.71571505350496
2009.7603 39.04 16.69 10.74091388194671 19.14980439756640
2009.7877 39.04 16.69 -18.12787534193715 17.61502785904793
2009.8151 39.04 16.69 -8.20058692297352 19.16722044037159
2009.8425 39.04 16.69 38.25447225120586 17.23314208540099
2009.8699 39.04 16.69 31.53212270336311 16.37029842802065
2009.8973 39.04 16.69 13.50824573145915 15.20949860410636
2009.9247 39.04 16.69 12.52440501373557 14.68117636392393
2009.9521 39.04 16.69 34.37198138104009 13.95276235067354
2009.9795 39.04 16.69 42.87270794446972 14.34526215591937
2010.0068 39.04 16.69 33.13598298207896 18.83448010091615
2010.0342 39.04 16.69 53.20429495523405 14.18701340638741
2010.0616 39.04 16.69 32.78506351268685 14.65718827239585
2010.0890 39.04 16.69 4.43521191146850 18.10276140055356
2010.1164 39.04 16.69 24.19907521682726 18.71183055607018
2010.1438 39.04 16.69 41.09376906022224 17.65451679878223
2010.1712 39.04 16.69 45.56255402475235 16.83044043962122
2010.1986 39.04 16.69 0.25878053368874 16.09595125940557
2010.2260 39.04 16.69 17.86060016815719 17.68635611752500
2010.2534 39.04 16.69 39.27767901680502 18.13185913627201
2010.2808 39.04 16.69 13.76006788905776 13.57320760480871
2010.3082 39.04 16.69 25.46589856282303 14.39424410581950
2010.3356 39.04 16.69 20.70173118367822 12.65255331183824
2010.3630 39.04 16.69 22.26496744730255 13.56967297966717
2010.3904 39.04 16.69 -4.21913806711974 13.57420906144091
2010.4178 39.04 16.69 -14.91791439289308 14.53135994048948
2010.4452 39.04 16.69 24.23102887832033 12.60854063510489
2010.4726 39.04 16.69 3.90186906034763 11.16389898367387
2010.5000 39.04 16.69 -4.53724687856767 12.98528555652339
2010.5274 39.04 16.69 -12.77490695260047 21.97841501741107
2010.5548 39.04 16.69 11.69467529993850 13.53083509896459
2010.5822 39.04 16.69 -2.70603163635976 12.07862403884208
2010.6096 39.04 16.69 -8.58436318709559 16.26692674213061
2010.6370 39.04 16.69 -15.41959309830058 14.26222158905366
2010.6644 39.04 16.69 -10.89478544168817 13.22341206535255
2010.6918 39.04 16.69 -20.27013084417026 16.39059541103073
2010.7192 39.04 16.69 -8.90934895697512 15.17565669996745
2010.7466 39.04 16.69 3.48032310971432 18.01445189167338
2010.7740 39.04 16.69 0.07264977265369 13.96178289041599
2010.8014 39.04 16.69 6.81768823682504 13.40182777985927
2010.8288 39.04 16.69 -6.83693716482571 15.61646808189633
2010.8562 39.04 16.69 8.39755029069256 15.23846918416756
2010.8836 39.04 16.69 35.65983952894326 13.82282893344522
2010.9110 39.04 16.69 67.42471087524530 15.43155760433669
2010.9384 39.04 16.69 53.04203448022195 16.11233787739944
2010.9658 39.04 16.69 34.19901407968816 17.90067302174781
2010.9932 39.04 16.69 60.25995429019541 12.72503626493353
2011.1027 39.04 16.69 3.54201549582867 12.78994622891048
2011.1301 39.04 16.69 37.96517082504238 21.22430781883438
2011.1575 39.04 16.69 31.64674167202723 13.55374375992089
2011.1849 39.04 16.69 11.16717842155846 10.31242606581523
2011.2123 39.04 16.69 14.48803471392051 18.01146187247415
2011.2397 39.04 16.69 -2.10721097269364 18.95488414706290
2011.2671 39.04 16.69 -2.16062451891336 14.92051906280689
2011.2945 39.04 16.69 21.28068052723913 17.79926946511351
2011.3219 39.04 16.69 17.49773995435083 16.60098628348218
2011.3493 39.04 16.69 7.11781396706225 14.60161342152536
2011.3767 39.04 16.69 14.32007880432249 17.47455862048777
2011.4041 39.04 16.69 16.39491251237303 15.01144181602856
2011.4315 39.04 16.69 21.99667288302192 14.65676342669441
2011.5137 39.04 16.69 12.87262660428840 13.39043369480644
2011.5411 39.04 16.69 -25.63688257935390 14.60291717083562
2011.5685 39.04 16.69 0.93227422144596 14.07027337978275
2011.5959 39.04 16.69 4.07891138562348 15.29443068094537
2011.6233 39.04 16.69 -2.10999594043506 15.13014817960650
2011.6507 39.04 16.69 -8.80505955716859 18.57376749272735
2011.6781 39.04 16.69 -11.62599527499660 17.22081953076344
2011.7055 39.04 16.69 -34.71685698284996 17.32290560629777
2011.7329 39.04 16.69 -2.54617940054207 20.39980547108295
2011.7603 39.04 16.69 -22.43507167599941 17.26851242860264
2011.7877 39.04 16.69 6.37459858254042 18.52961065499887
2011.8151 39.04 16.69 -27.04839866473818 18.07224106837080
2011.8425 39.04 16.69 20.73886434467561 19.90409161432522
2011.8699 39.04 16.69 -3.28817487783454 18.36891624576080
2011.9521 39.04 16.69 36.96000827060585 11.12281644320105
2011.9795 39.04 16.69 46.87936745188831 15.59653589113513
2012.0068 39.04 16.69 27.30330131741114 14.34415803188819
2012.0342 39.04 16.69 29.11330129318999 17.34465308788713
2012.0616 39.04 16.69 6.94993663758901 14.99736069506687
2012.0890 39.04 16.69 -1.36318147146261 14.72186947311494
2012.1164 39.04 16.69 -9.28453304316601 14.27781255984099
2012.1438 39.04 16.69 9.58871514619583 14.80284849596259
2012.1712 39.04 16.69 -11.79027646803177 13.88946183186378
2012.1986 39.04 16.69 -7.31975093256943 12.47849610260781
2012.2260 39.04 16.69 1.45282534342480 12.94668428271970
2012.2534 39.04 16.69 -22.68680881009212 12.57007878143917
2012.2808 39.04 16.69 8.57151880801252 11.66293431435710
2012.3082 39.04 16.69 28.54815705137189 13.03811686430640
2012.3904 39.04 16.69 80.48181684523124 13.61330400431201
2012.4178 39.04 16.69 46.35040718183248 10.57188240745234
2012.4452 39.04 16.69 53.04853847227209 10.38163912381564
2012.4726 39.04 16.69 38.83326216167944 11.33452897947910
2012.5000 39.04 16.69 14.90286487323791 10.65549927382721
2012.5274 39.04 16.69 0.40001017027248 11.44597947955545
2012.5548 39.04 16.69 -15.22890604918138 11.44560260062199
2012.5822 39.04 16.69 -6.49999664613937 12.27004854546399
2012.6096 39.04 16.69 4.49460014748574 12.25094979151588
2012.6370 39.04 16.69 2.56077104889789 11.17414021041039
2012.6644 39.04 16.69 -15.09839269689808 12.37897961239361
2012.6918 39.04 16.69 -11.97316554440912 12.83859099947204
2012.7192 39.04 16.69 -8.89237227688622 15.85980828381082
2012.7466 39.04 16.69 7.78089627959803 10.36079517143927
2012.8562 39.04 16.69 34.61505781043545 16.30449776331089
2012.8836 39.04 16.69 1.19913099375053 15.41014930517012
2012.9110 39.04 16.69 29.69083920873923 14.53338534476993
2012.9384 39.04 16.69 12.16834628301898 13.59619172536406
2012.9658 39.04 16.69 13.64224294094112 15.84467295540698
2012.9918 39.04 16.69 16.57628539061558 7.32103393076241
2013.0178 39.04 16.69 10.71921037441463 8.87709448132336
2013.0452 39.04 16.69 -1.74917792676924 8.78410486163222
2013.0726 39.04 16.69 11.02367506978776 8.00296707745493
2013.1000 39.04 16.69 4.89809114669320 8.23773785688534
2013.1274 39.04 16.69 -10.69327729847195 7.51268290788343
2013.1548 39.04 16.69 -15.11131669904016 6.74290183136858
2013.2644 39.04 16.69 -6.40506949842805 7.51174425473489
2013.2918 39.04 16.69 23.05873104921152 7.79080083889998
2013.3192 39.04 16.69 -20.12423240494590 8.77346229576729
2013.3466 39.04 16.69 24.08466938819774 9.05031454366702
2013.3740 39.04 16.69 31.66255360273661 7.58309942647816
2013.4014 39.04 16.69 25.34611711024382 7.87208277470156
2013.4288 39.04 16.69 37.36777806189253 6.74209657113422
2013.4562 39.04 16.69 19.36195883943923 6.85362196472855
2013.4836 39.04 16.69 1.52222864370776 7.09876968913951
2013.5110 39.04 16.69 -3.66591647505662 8.18834363468570
2013.5384 39.04 16.69 21.14251657473923 7.80557676719918
2013.5658 39.04 16.69 6.40754314575312 8.33584502521679
2013.7575 39.04 16.69 -5.09027048055119 7.71247838614567
2013.7849 39.04 16.69 27.35052819851955 8.12568264059148
2013.8123 39.04 16.69 26.52787615687293 7.37462121875026
2013.8397 39.04 16.69 28.40661745293657 7.50723443463467
2013.8671 39.04 16.69 34.21910009977824 7.98633863898229
2013.8945 39.04 16.69 9.70516737005996 7.47426769586375
2013.9219 39.04 16.69 26.82064525046197 6.47514067148744
2013.9493 39.04 16.69 9.30059854022460 7.04292197854168
2013.9767 39.04 16.69 22.50927535942465 6.99810321553135
2014.0041 39.04 16.69 29.40051183071375 6.78813913909843
2014.0315 39.04 16.69 38.81914131241711 7.18215426284789
2014.1685 39.04 16.69 20.54405222095769 7.48277913894497
2014.1959 39.04 16.69 19.30543168056743 7.93589324239320
2014.2233 39.04 16.69 12.15532254211184 7.42301929272872
2014.2507 39.04 16.69 28.96993122134405 6.70108237806022
2014.2781 39.04 16.69 20.90580738992412 7.17265681623237
2014.3055 39.04 16.69 26.64495479083046 6.82226440514432
2014.3329 39.04 16.69 17.92104613742514 5.36313767068172
2014.3603 39.04 16.69 25.58708305253475 6.30895599001367
2014.3877 39.04 16.69 20.99189821661298 6.32586455508282
2014.4151 39.04 16.69 12.40474730958482 6.23656666749096
2014.4425 39.04 16.69 13.84766844486758 6.69219733449919
2014.4699 39.04 16.69 34.64567478017810 6.55696555037809
2014.5795 39.04 16.69 18.19648168153526 5.21574747924644
2014.6068 39.04 16.69 -9.78998528333012 5.72683785852459
2014.6342 39.04 16.69 -13.43907752637767 5.03908235338200
2014.6616 39.04 16.69 -2.89241233225588 5.84317555518917
2014.6890 39.04 16.69 -0.59852239180563 5.68753766402382
2014.7164 39.04 16.69 7.16329045776269 5.54709568250594
2014.7438 39.04 16.69 -7.80247084235844 6.16955357322549
2014.7712 39.04 16.69 16.76222351415313 6.09502615277670
2014.7986 39.04 16.69 26.33695523234743 5.22761714546480
2014.8260 39.04 16.69 -10.09962226961608 5.17579486987634
2014.8534 39.04 16.69 -2.95075304033141 5.53553136919046
2014.8808 39.04 16.69 37.69847760322044 5.55613054621814
2014.9082 39.04 16.69 18.64220097383119 5.69050900414279
2015.0452 39.04 16.69 10.82690540512256 3.92595196187418
2015.0726 39.04 16.69 22.82628418201730 4.46164118677539
2015.1000 39.04 16.69 25.19943767706324 3.81202327108261
2015.1274 39.04 16.69 19.84793819411650 3.50574085660629
2015.1548 39.04 16.69 22.92865244833186 4.28600081875912
2015.1822 39.04 16.69 9.25979237364224 3.92672498673112
2015.2096 39.04 16.69 -38.40327806460095 5.76597718223108
2015.2370 39.04 16.69 32.50317531347989 6.33365752859989
2015.2644 39.04 16.69 39.13989263838589 5.45041175805639
2015.2918 39.04 16.69 25.66195405933437 5.35326567478009
2015.3192 39.04 16.69 16.95964798861428 5.13650926877134
2015.3466 39.04 16.69 33.27117707448848 5.65577321035175
2015.4836 39.04 16.69 39.27853398849520 4.66214601768620
2015.5110 39.04 16.69 42.75344803048305 4.57892850274442
2015.5384 39.04 16.69 6.85623267643960 5.24049996971918
2015.5658 39.04 16.69 8.53350563063188 5.59378766664527
2015.5932 39.04 16.69 3.17659735827449 5.93047925352673
2015.6205 39.04 16.69 4.44728074863905 5.57965298021268
2015.6479 39.04 16.69 -1.67811512455221 5.45688416404554
2015.6753 39.04 16.69 -16.97563724040073 5.09543432143740
2015.7027 39.04 16.69 11.83580249530196 5.80988653107691
2015.7301 39.04 16.69 29.61176875805447 5.69195950053941
2015.9493 39.04 16.69 44.35100724503270 5.41704535075972
2015.9767 39.04 16.69 12.69045726435789 5.99519752023411
2016.0041 39.04 16.69 54.19881547508830 5.27968136929306
2016.0315 39.04 16.69 -5.44811098691830 5.00552125536097
2016.0589 39.04 16.69 34.01458670945902 5.11819807423878
2016.0863 39.04 16.69 37.58612724789302 4.45910582591697
2016.1137 39.04 16.69 29.89248116214336 5.23762363187341
2016.1411 39.04 16.69 -16.88492629372492 6.48979340598716
2016.1685 39.04 16.69 0.91822048792571 7.19085559239118
2016.1959 39.04 16.69 36.98194504383296 7.09713941896222
2016.2233 39.04 16.69 -21.85054650573391 7.25490406352209
2016.2507 39.04 16.69 29.62894378199141 5.39639439278865
2016.3603 39.04 16.69 34.63776034710678 5.07631349747099
2016.3877 39.04 16.69 28.53326942436882 6.26774715430267
2016.4151 39.04 16.69 27.39606587292575 6.06315701319933
2016.4425 39.04 16.69 3.15666591436777 6.68649225127331
2016.4699 39.04 16.69 23.42247904417576 6.53193151963877
