2002.5877 43.86 -79.38 -0.369 0.638 1.582 0.115 0.100 0.527
2002.6151 43.86 -79.38 -0.336 0.529 4.058 0.110 0.097 0.504
2002.6425 43.86 -79.38 -0.344 -0.240 3.634 0.112 0.099 0.513
2002.6699 43.86 -79.38 -0.721 -0.096 4.665 0.097 0.085 0.449
2002.6973 43.86 -79.38 -0.584 -0.575 4.706 0.171 0.083 0.649
2002.7247 43.86 -79.38 -0.641 -0.497 6.259 0.104 0.092 0.477
2002.7521 43.86 -79.38 -0.849 0.153 3.456 0.096 0.086 0.445
2002.7795 43.86 -79.38 -0.829 -0.212 5.347 0.112 0.100 0.516
2002.8068 43.86 -79.38 -0.742 -0.237 4.799 0.100 0.088 0.459
2002.8342 43.86 -79.38 -1.055 0.013 2.468 0.099 0.087 0.453
2002.8616 43.86 -79.38 -1.000 0.225 4.796 0.103 0.079 0.455
2002.8890 43.86 -79.38 -1.059 0.587 2.792 0.100 0.088 0.457
2002.9164 43.86 -79.38 -1.036 0.740 3.282 0.107 0.093 0.491
2003.0260 43.86 -79.38 -1.067 0.734 2.644 0.121 0.105 0.557
2003.0534 43.86 -79.38 -1.105 1.085 6.866 0.196 0.173 0.883
2003.0808 43.86 -79.38 -1.160 0.622 4.235 0.176 0.148 0.792
2003.1082 43.86 -79.38 -1.008 0.856 2.028 0.103 0.087 0.473
2003.1356 43.86 -79.38 -1.380 0.551 3.815 0.096 0.081 0.441
2003.1630 43.86 -79.38 -1.123 0.300 2.307 0.101 0.087 0.466
2003.1904 43.86 -79.38 -0.769 0.372 2.154 0.119 0.100 0.541
2003.2178 43.86 -79.38 -0.508 0.314 1.951 0.100 0.085 0.459
2003.2452 43.86 -79.38 -0.563 0.165 1.327 0.097 0.084 0.448
2003.2726 43.86 -79.38 -0.896 0.520 2.603 0.095 0.082 0.438
2003.3000 43.86 -79.38 -0.452 0.550 3.687 0.093 0.081 0.428
2003.3274 43.86 -79.38 -0.706 0.247 0.062 0.121 0.105 0.551
2003.3548 43.86 -79.38 -0.939 0.203 1.170 0.131 0.117 0.598
2003.3822 43.86 -79.38 -0.870 0.017 1.578 0.121 0.103 0.551
2003.5192 43.86 -79.38 -1.115 0.388 2.661 0.125 0.112 0.569
2003.5466 43.86 -79.38 -1.132 0.381 1.534 0.137 0.125 0.625
2003.5740 43.86 -79.38 -1.267 0.522 3.596 0.159 0.145 0.722
2003.6014 43.86 -79.38 -1.307 0.586 2.139 0.137 0.125 0.625
2003.6288 43.86 -79.38 -1.515 0.646 4.339 0.131 0.117 0.596
2003.6562 43.86 -79.38 -1.252 0.554 6.084 0.140 0.126 0.636
2003.6836 43.86 -79.38 -1.445 0.665 5.650 0.138 0.125 0.625
2003.7110 43.86 -79.38 -1.618 0.172 5.105 0.109 0.096 0.498
2003.7384 43.86 -79.38 -1.357 0.347 5.424 0.131 0.117 0.595
2003.7658 43.86 -79.38 -1.550 0.051 6.526 0.121 0.108 0.549
2003.7932 43.86 -79.38 -1.275 0.699 5.524 0.134 0.120 0.608
2003.8205 43.86 -79.38 -1.071 0.581 1.879 0.146 0.127 0.652
2003.8479 43.86 -79.38 -1.019 0.390 3.802 0.129 0.109 0.575
2003.8753 43.86 -79.38 -0.937 0.744 4.711 0.135 0.119 0.605
2003.9027 43.86 -79.38 -1.049 0.138 1.168 0.124 0.107 0.557
2003.9301 43.86 -79.38 -1.013 0.828 1.686 0.129 0.111 0.576
2003.9575 43.86 -79.38 -1.031 0.759 0.147 0.144 0.126 0.641
2003.9849 43.86 -79.38 -0.865 0.551 0.675 0.137 0.118 0.609
2004.0123 43.86 -79.38 -0.951 1.064 1.975 0.147 0.126 0.652
2004.0397 43.86 -79.38 -0.831 1.016 0.639 0.126 0.105 0.564
2004.0945 43.86 -79.38 -0.801 0.288 -1.801 0.117 0.098 0.526
2004.1219 43.86 -79.38 -0.847 0.180 -0.224 0.124 0.104 0.549
2004.1493 43.86 -79.38 -0.879 -0.165 3.239 0.146 0.122 0.641
2004.1767 43.86 -79.38 -0.591 0.177 0.131 0.155 0.130 0.679
2004.2041 43.86 -79.38 -0.785 0.467 0.355 0.128 0.105 0.559
2004.2315 43.86 -79.38 -0.377 0.030 1.605 0.130 0.106 0.568
2004.2589 43.86 -79.38 -0.248 -0.174 3.345 0.134 0.109 0.586
2004.2863 43.86 -79.38 -0.551 -0.005 -0.371 0.135 0.109 0.586
2004.3137 43.86 -79.38 -0.431 -0.285 -1.450 0.128 0.104 0.559
2004.3411 43.86 -79.38 -0.315 -0.664 -0.552 0.141 0.113 0.608
2004.3685 43.86 -79.38 -0.167 -0.825 0.201 0.136 0.109 0.592
2004.3959 43.86 -79.38 -0.309 -0.892 -0.782 0.120 0.097 0.526
2004.4233 43.86 -79.38 -0.492 -0.472 -3.257 0.115 0.093 0.506
2004.4507 43.86 -79.38 -0.455 -0.628 -1.703 0.103 0.082 0.450
2004.4781 43.86 -79.38 -0.241 -0.532 -0.952 0.113 0.090 0.491
2004.5055 43.86 -79.38 -0.585 -0.686 -0.776 0.110 0.088 0.481
2004.5329 43.86 -79.38 -0.597 -0.508 0.146 0.104 0.084 0.458
2004.5603 43.86 -79.38 -0.741 -0.385 1.034 0.107 0.085 0.468
2004.5877 43.86 -79.38 -0.829 -0.172 -0.523 0.108 0.086 0.474
2004.6151 43.86 -79.38 -0.800 -0.205 0.683 0.119 0.095 0.520
2004.6425 43.86 -79.38 -0.894 0.050 0.256 0.102 0.082 0.450
2004.6699 43.86 -79.38 -1.060 0.287 0.456 0.102 0.082 0.452
2004.6973 43.86 -79.38 -0.908 0.548 -0.755 0.096 0.078 0.427
2004.7247 43.86 -79.38 -0.972 0.177 0.581 0.110 0.088 0.482
2004.7521 43.86 -79.38 -0.937 0.255 2.029 0.105 0.085 0.467
2004.7795 43.86 -79.38 -0.977 0.135 3.776 0.102 0.082 0.452
2004.8068 43.86 -79.38 -1.034 0.468 2.649 0.113 0.090 0.495
2004.8342 43.86 -79.38 -0.860 0.178 2.249 0.112 0.089 0.488
2004.8616 43.86 -79.38 -1.067 0.350 3.317 0.099 0.080 0.440
2004.8890 43.86 -79.38 -0.923 -0.283 2.829 0.099 0.080 0.438
2004.9164 43.86 -79.38 -0.887 0.332 1.042 0.108 0.086 0.472
2004.9438 43.86 -79.38 -0.824 -0.118 1.641 0.119 0.097 0.527
2004.9712 43.86 -79.38 -0.770 -0.058 -2.481 0.108 0.086 0.470
2004.9973 43.86 -79.38 -0.968 -0.034 -1.012 0.104 0.084 0.461
2005.0233 43.86 -79.38 -0.927 0.020 -4.014 0.120 0.097 0.521
2005.0507 43.86 -79.38 -0.871 0.020 -2.531 0.173 0.143 0.747
2005.0781 43.86 -79.38 -0.793 0.001 -1.081 0.133 0.109 0.577
2005.1055 43.86 -79.38 -0.844 0.241 -3.227 0.132 0.108 0.575
2005.1329 43.86 -79.38 -0.738 0.173 -2.657 0.135 0.111 0.589
2005.1603 43.86 -79.38 -0.533 -0.067 -3.070 0.121 0.100 0.533
2005.1877 43.86 -79.38 -0.391 -0.084 -2.248 0.123 0.099 0.537
2005.2151 43.86 -79.38 -0.485 -0.491 -1.678 0.116 0.094 0.511
2005.2425 43.86 -79.38 -0.518 -0.295 -1.150 0.112 0.092 0.493
2005.2699 43.86 -79.38 -0.485 -0.399 -2.022 0.119 0.098 0.524
2005.2973 43.86 -79.38 -0.476 -0.468 -0.120 0.125 0.104 0.551
2005.3247 43.86 -79.38 -0.508 -0.264 -3.178 0.132 0.109 0.581
2005.3521 43.86 -79.38 -0.470 -0.382 -1.942 0.059 0.050 0.282
2005.3795 43.86 -79.38 -0.367 -0.811 -0.997 0.124 0.103 0.548
2005.4068 43.86 -79.38 -0.491 -0.590 -1.455 0.114 0.095 0.507
2005.4342 43.86 -79.38 -0.369 -0.578 -0.403 0.130 0.109 0.580
2005.4616 43.86 -79.38 -0.380 -0.350 0.400 0.118 0.099 0.526
2005.4890 43.86 -79.38 -0.552 -0.107 2.914 0.112 0.094 0.500
2005.5164 43.86 -79.38 -0.322 -0.290 1.054 0.112 0.094 0.499
2005.5438 43.86 -79.38 -0.590 0.190 0.772 0.121 0.102 0.539
2005.5712 43.86 -79.38 -1.004 -0.011 2.486 0.131 0.112 0.584
2005.5986 43.86 -79.38 -0.859 0.003 2.700 0.134 0.115 0.596
2005.6260 43.86 -79.38 -0.785 0.041 2.827 0.119 0.101 0.532
2005.6534 43.86 -79.38 -0.798 -0.023 5.080 0.125 0.107 0.558
2005.6808 43.86 -79.38 -0.772 0.337 2.477 0.123 0.105 0.549
2005.7082 43.86 -79.38 -0.588 0.323 5.682 0.147 0.129 0.657
2005.7356 43.86 -79.38 -0.650 0.230 6.053 0.130 0.113 0.582
2005.7630 43.86 -79.38 -0.478 0.539 4.091 0.130 0.114 0.584
2005.7904 43.86 -79.38 -0.582 0.532 3.085 0.122 0.107 0.550
2005.8178 43.86 -79.38 -0.583 0.651 2.711 0.125 0.110 0.564
2005.8452 43.86 -79.38 -0.707 0.924 1.943 0.134 0.118 0.605
2005.8726 43.86 -79.38 -0.640 0.834 4.800 0.117 0.102 0.527
2005.9000 43.86 -79.38 -0.351 0.712 3.138 0.114 0.099 0.515
2005.9274 43.86 -79.38 -0.756 0.450 0.200 0.121 0.100 0.542
2005.9548 43.86 -79.38 -0.435 0.764 1.688 0.118 0.100 0.555
2005.9822 43.86 -79.38 -0.426 0.764 2.063 0.114 0.096 0.517
2006.0096 43.86 -79.38 -0.350 0.702 3.370 0.123 0.106 0.553
2006.0370 43.86 -79.38 -0.599 0.557 2.437 0.153 0.134 0.689
2006.0644 43.86 -79.38 -0.308 0.698 -0.331 0.156 0.137 0.701
2006.0918 43.86 -79.38 -0.064 0.523 0.044 0.154 0.136 0.695
2006.1192 43.86 -79.38 -0.062 0.521 -1.863 0.173 0.155 0.780
2006.1466 43.86 -79.38 0.214 0.431 0.090 0.137 0.122 0.621
2006.1740 43.86 -79.38 0.072 0.157 0.486 0.153 0.138 0.690
2006.2014 43.86 -79.38 0.242 0.173 -1.475 0.120 0.106 0.544
2006.2288 43.86 -79.38 0.246 0.023 0.742 0.153 0.139 0.695
2006.2562 43.86 -79.38 0.211 -0.202 0.293 0.144 0.131 0.652
2006.2836 43.86 -79.38 0.214 0.061 0.635 0.141 0.128 0.640
2006.3110 43.86 -79.38 0.066 -0.359 0.489 0.150 0.137 0.682
2006.3384 43.86 -79.38 -0.219 -0.185 2.435 0.136 0.124 0.620
2006.3658 43.86 -79.38 -0.094 0.149 4.620 0.151 0.138 0.685
2006.3932 43.86 -79.38 -0.125 -0.187 1.445 0.148 0.136 0.675
2006.4205 43.86 -79.38 -0.133 -0.265 -0.955 0.149 0.136 0.679
2006.4479 43.86 -79.38 -0.171 0.102 1.197 0.165 0.146 0.743
2006.4753 43.86 -79.38 -0.573 0.168 -1.087 0.166 0.152 0.754
2006.5027 43.86 -79.38 -0.609 0.789 0.586 0.172 0.158 0.782
2006.5301 43.86 -79.38 -0.423 0.534 0.359 0.203 0.188 0.922
2006.5575 43.86 -79.38 -0.625 0.320 0.754 0.162 0.149 0.739
2006.5849 43.86 -79.38 -0.563 0.505 0.924 0.167 0.154 0.760
2006.6123 43.86 -79.38 -0.400 0.401 2.972 0.204 0.190 0.926
2006.6397 43.86 -79.38 -0.335 0.466 2.394 0.174 0.161 0.790
2006.6671 43.86 -79.38 -0.738 0.615 2.596 0.158 0.146 0.721
2006.6945 43.86 -79.38 -0.797 0.602 5.171 0.201 0.187 0.913
2006.7219 43.86 -79.38 -1.061 0.232 4.050 0.190 0.174 0.861
2006.7493 43.86 -79.38 -0.701 0.329 5.159 0.226 0.208 1.021
2006.7767 43.86 -79.38 -0.613 0.537 2.953 0.195 0.181 0.887
2006.8041 43.86 -79.38 -0.606 0.379 2.389 0.158 0.145 0.720
2006.8315 43.86 -79.38 -0.470 1.063 1.676 0.183 0.169 0.832
2006.8589 43.86 -79.38 -0.755 0.768 0.383 0.179 0.164 0.811
2006.8863 43.86 -79.38 -0.624 0.610 1.133 0.172 0.157 0.779
2006.9137 43.86 -79.38 -0.721 0.763 0.064 0.167 0.152 0.759
2006.9411 43.86 -79.38 -0.551 0.552 0.156 0.165 0.149 0.747
2006.9685 43.86 -79.38 -0.413 0.362 0.134 0.165 0.147 0.744
2006.9959 43.86 -79.38 -0.537 0.363 1.092 0.164 0.144 0.740
2007.0233 43.86 -79.38 -0.618 0.238 -0.212 0.153 0.133 0.690
2007.0507 43.86 -79.38 -0.752 0.301 0.540 0.160 0.139 0.718
2007.0781 43.86 -79.38 -0.702 0.135 0.910 0.162 0.146 0.736
2007.1055 43.86 -79.38 -0.301 0.025 1.278 0.145 0.130 0.660
2007.1329 43.86 -79.38 -0.150 0.076 1.585 0.158 0.142 0.717
2007.1603 43.86 -79.38 -0.396 -0.224 0.314 0.150 0.136 0.684
2007.1877 43.86 -79.38 -0.762 0.451 3.480 0.193 0.178 0.874
2007.2151 43.86 -79.38 -0.486 -0.146 0.629 0.172 0.158 0.782
2007.2425 43.86 -79.38 -0.297 -0.181 0.174 0.165 0.152 0.752
2007.2699 43.86 -79.38 0.181 0.041 -0.038 0.133 0.119 0.606
2007.2973 43.86 -79.38 0.012 0.005 -0.890 0.126 0.112 0.573
2007.3247 43.86 -79.38 -0.045 0.122 0.059 0.152 0.139 0.694
2007.3521 43.86 -79.38 -0.041 -0.131 -0.615 0.166 0.153 0.757
2007.3795 43.86 -79.38 -0.102 0.051 -0.765 0.174 0.161 0.793
2007.4068 43.86 -79.38 0.056 -0.112 -1.293 0.146 0.133 0.665
2007.4342 43.86 -79.38 0.271 -0.126 -0.732 0.140 0.127 0.638
2007.4616 43.86 -79.38 0.168 -0.303 1.114 0.182 0.169 0.828
2007.4890 43.86 -79.38 0.178 -0.011 0.649 0.141 0.127 0.642
2007.5164 43.86 -79.38 -0.206 0.572 3.600 0.148 0.135 0.676
2007.5438 43.86 -79.38 -0.080 0.220 3.675 0.144 0.131 0.656
2007.5712 43.86 -79.38 0.002 0.161 3.367 0.148 0.134 0.674
2007.5986 43.86 -79.38 -0.294 0.226 5.025 0.181 0.165 0.820
2007.6260 43.86 -79.38 -0.243 0.295 5.535 0.148 0.134 0.674
2007.6534 43.86 -79.38 -0.420 0.149 6.007 0.151 0.136 0.684
2007.6808 43.86 -79.38 -0.315 0.452 6.549 0.159 0.143 0.720
2007.7082 43.86 -79.38 -0.375 0.463 7.080 0.119 0.104 0.543
2007.7356 43.86 -79.38 -0.321 0.862 4.984 0.163 0.146 0.738
2007.7630 43.86 -79.38 -0.260 0.607 6.149 0.127 0.111 0.578
2007.7904 43.86 -79.38 0.049 0.392 6.736 0.160 0.145 0.726
2007.8178 43.86 -79.38 -0.077 0.749 3.955 0.183 0.167 0.831
2007.8452 43.86 -79.38 -0.165 0.693 5.398 0.150 0.135 0.684
2007.8726 43.86 -79.38 -0.094 0.906 6.941 0.175 0.158 0.792
2007.9000 43.86 -79.38 -0.114 0.955 6.126 0.187 0.163 0.835
2007.9274 43.86 -79.38 -0.047 0.685 3.369 0.181 0.165 0.821
2007.9548 43.86 -79.38 -0.381 0.794 2.845 0.136 0.123 0.622
2007.9822 43.86 -79.38 -0.206 0.788 1.317 0.167 0.152 0.759
2008.0096 43.86 -79.38 -0.119 0.913 2.616 0.146 0.134 0.668
2008.0370 43.86 -79.38 -0.090 0.673 1.352 0.150 0.138 0.687
2008.0644 43.86 -79.38 0.214 0.562 1.726 0.173 0.160 0.787
2008.0918 43.86 -79.38 0.052 0.331 0.796 0.140 0.127 0.639
2008.1192 43.86 -79.38 0.067 0.501 0.406 0.163 0.150 0.742
2008.1466 43.86 -79.38 0.133 0.668 -1.334 0.188 0.175 0.859
2008.1740 43.86 -79.38 -0.062 0.044 -1.865 0.165 0.153 0.754
2008.2014 43.86 -79.38 -0.251 0.691 -2.028 0.176 0.164 0.804
2008.2288 43.86 -79.38 0.045 0.123 -3.981 0.207 0.190 0.943
2008.2562 43.86 -79.38 0.347 0.408 -0.874 0.193 0.177 0.877
2008.2836 43.86 -79.38 0.158 0.035 -2.122 0.231 0.213 1.052
2008.3110 43.86 -79.38 0.059 -0.005 -1.376 0.239 0.221 1.083
2008.3384 43.86 -79.38 0.282 -0.493 -3.133 0.177 0.163 0.804
2008.3658 43.86 -79.38 0.483 -0.466 -3.050 0.181 0.166 0.823
2008.3932 43.86 -79.38 0.014 -0.492 -2.586 0.165 0.150 0.752
2008.4205 43.86 -79.38 -0.013 -0.383 0.890 0.145 0.131 0.659
2008.4479 43.86 -79.38 0.221 -0.715 -0.027 0.147 0.133 0.666
2008.4753 43.86 -79.38 0.394 -0.598 0.324 0.143 0.129 0.648
2008.5027 43.86 -79.38 0.057 -0.470 -0.130 0.175 0.157 0.789
2008.5301 43.86 -79.38 0.046 -0.083 0.411 0.216 0.196 0.978
2008.5575 43.86 -79.38 0.219 0.029 0.297 0.143 0.126 0.645
2008.5849 43.86 -79.38 0.223 0.497 0.479 0.159 0.144 0.721
2008.6123 43.86 -79.38 0.255 0.563 -1.404 0.134 0.119 0.609
2008.6397 43.86 -79.38 0.055 0.180 -0.833 0.147 0.131 0.664
2008.6671 43.86 -79.38 -0.058 0.157 1.838 0.141 0.126 0.639
2008.6945 43.86 -79.38 -0.109 0.134 1.074 0.137 0.121 0.619
2008.7219 43.86 -79.38 -0.126 -0.404 1.414 0.156 0.141 0.707
2008.7493 43.86 -79.38 -0.174 -0.153 2.671 0.141 0.128 0.643
2008.7767 43.86 -79.38 0.059 -0.009 2.707 0.164 0.150 0.744
2008.8041 43.86 -79.38 -0.036 -0.094 1.771 0.165 0.151 0.748
2008.8315 43.86 -79.38 -0.182 0.399 1.479 0.186 0.171 0.846
2008.8589 43.86 -79.38 -0.051 0.214 2.529 0.217 0.200 0.985
2008.8863 43.86 -79.38 0.006 0.448 1.844 0.208 0.192 0.946
2008.9137 43.86 -79.38 0.033 0.110 -0.718 0.198 0.183 0.901
2008.9411 43.86 -79.38 0.065 0.625 -0.245 0.208 0.191 0.945
2008.9685 43.86 -79.38 -0.196 0.323 -0.927 0.195 0.178 0.885
2008.9945 43.86 -79.38 0.154 0.365 -1.181 0.164 0.151 0.749
2009.0205 43.86 -79.38 0.326 0.229 -1.292 0.161 0.149 0.736
2009.0479 43.86 -79.38 0.274 0.349 -1.825 0.162 0.149 0.737
2009.0753 43.86 -79.38 0.174 0.213 -1.998 0.155 0.143 0.710
2009.1027 43.86 -79.38 0.348 0.407 -2.474 0.193 0.179 0.878
2009.1301 43.86 -79.38 0.236 0.022 -3.070 0.154 0.142 0.703
2009.1575 43.86 -79.38 0.363 0.128 -1.844 0.157 0.144 0.718
2009.1849 43.86 -79.38 0.061 0.261 -1.221 0.179 0.166 0.816
2009.2123 43.86 -79.38 0.342 -0.196 -1.286 0.156 0.140 0.707
2009.2397 43.86 -79.38 0.295 -0.355 -2.782 0.175 0.161 0.796
2009.2671 43.86 -79.38 0.524 -0.905 -2.609 0.147 0.135 0.669
2009.2945 43.86 -79.38 0.513 -0.816 -0.850 0.150 0.138 0.685
2009.3219 43.86 -79.38 0.432 -0.384 -0.616 0.157 0.144 0.715
2009.3493 43.86 -79.38 0.345 -1.319 -2.107 0.144 0.131 0.658
2009.3767 43.86 -79.38 0.317 -1.215 -1.175 0.152 0.138 0.691
2009.4041 43.86 -79.38 0.222 -1.098 -1.860 0.135 0.121 0.613
2009.4315 43.86 -79.38 0.129 -0.708 -0.772 0.154 0.140 0.698
2009.4589 43.86 -79.38 0.387 -0.212 -0.356 0.131 0.117 0.598
2009.4863 43.86 -79.38 0.365 0.049 -2.530 0.145 0.129 0.656
2009.5137 43.86 -79.38 0.118 -0.270 -2.657 0.140 0.122 0.631
2009.5411 43.86 -79.38 0.318 -0.178 -3.112 0.170 0.152 0.771
2009.5685 43.86 -79.38 0.053 -0.237 -2.460 0.184 0.163 0.830
2009.5959 43.86 -79.38 0.126 -0.094 -2.921 0.161 0.143 0.730
2009.6233 43.86 -79.38 0.105 -0.034 -3.193 0.166 0.149 0.752
2009.6507 43.86 -79.38 0.005 -0.393 -1.459 0.160 0.143 0.724
2009.6781 43.86 -79.38 -0.122 -0.038 -0.299 0.170 0.154 0.772
2009.7055 43.86 -79.38 0.061 -0.369 2.310 0.176 0.160 0.797
2009.7329 43.86 -79.38 -0.122 -0.051 2.660 0.170 0.154 0.771
2009.7603 43.86 -79.38 -0.262 0.163 0.269 0.194 0.176 0.877
2009.7877 43.86 -79.38 -0.286 0.070 2.131 0.178 0.163 0.810
2009.8151 43.86 -79.38 -0.192 -0.363 1.354 0.191 0.175 0.866
2009.8425 43.86 -79.38 -0.176 -0.055 -0.754 0.174 0.159 0.790
2009.8699 43.86 -79.38 -0.173 -0.095 1.639 0.166 0.152 0.756
2009.8973 43.86 -79.38 -0.039 0.136 2.614 0.156 0.142 0.709
2009.9247 43.86 -79.38 -0.244 0.200 0.353 0.157 0.140 0.712
2009.9521 43.86 -79.38 -0.053 -0.201 -1.411 0.146 0.132 0.666
2009.9795 43.86 -79.38 -0.168 -0.038 -1.501 0.150 0.136 0.685
2010.0068 43.86 -79.38 -0.080 -0.003 -0.565 0.188 0.173 0.856
2010.0342 43.86 -79.38 0.127 -0.214 0.461 0.148 0.134 0.675
2010.0616 43.86 -79.38 0.015 0.242 0.150 0.152 0.138 0.691
2010.0890 43.86 -79.38 0.110 -0.166 -2.374 0.180 0.166 0.818
2010.1164 43.86 -79.38 0.002 -0.244 -1.237 0.186 0.171 0.845
2010.1438 43.86 -79.38 -0.024 -0.313 -3.028 0.180 0.164 0.817
2010.1712 43.86 -79.38 -0.016 -0.297 -0.726 0.172 0.157 0.782
2010.1986 43.86 -79.38 0.127 -0.424 -2.670 0.165 0.150 0.750
2010.2260 43.86 -79.38 0.132 -0.726 -1.210 0.180 0.164 0.818
2010.2534 43.86 -79.38 0.141 -0.500 0.176 0.187 0.169 0.845
2010.2808 43.86 -79.38 -0.365 -0.641 1.732 0.145 0.129 0.658
2010.3082 43.86 -79.38 0.028 -0.485 3.636 0.151 0.136 0.686
2010.3356 43.86 -79.38 0.024 -0.479 3.406 0.140 0.123 0.634
2010.3630 43.86 -79.38 0.014 -0.431 1.829 0.148 0.131 0.672
2010.3904 43.86 -79.38 0.101 -0.409 0.991 0.155 0.129 0.689
2010.4178 43.86 -79.38 -0.363 -0.462 0.487 0.158 0.139 0.713
2010.4452 43.86 -79.38 -0.247 -0.604 -0.617 0.140 0.124 0.637
2010.4726 43.86 -79.38 -0.088 -0.392 0.536 0.127 0.111 0.579
2010.5000 43.86 -79.38 -0.128 -0.282 -0.117 0.142 0.126 0.645
2010.5274 43.86 -79.38 -0.336 -0.109 1.862 0.215 0.198 0.973
2010.5548 43.86 -79.38 0.047 -0.331 0.543 0.140 0.127 0.637
2010.5822 43.86 -79.38 -0.109 -0.363 0.824 0.127 0.115 0.579
2010.6096 43.86 -79.38 -0.367 -0.202 -0.740 0.161 0.148 0.734
2010.6370 43.86 -79.38 -0.086 -0.409 -0.024 0.145 0.132 0.660
2010.6644 43.86 -79.38 -0.257 0.048 0.197 0.136 0.124 0.622
2010.6918 43.86 -79.38 0.209 0.343 0.107 0.162 0.149 0.736
2010.7192 43.86 -79.38 0.230 0.020 0.603 0.151 0.139 0.688
2010.7466 43.86 -79.38 -0.105 0.296 1.225 0.174 0.161 0.790
2010.7740 43.86 -79.38 0.218 -0.223 0.985 0.144 0.131 0.658
2010.8014 43.86 -79.38 0.217 -0.043 3.676 0.137 0.125 0.625
2010.8288 43.86 -79.38 0.338 0.177 1.273 0.155 0.143 0.706
2010.8562 43.86 -79.38 0.248 0.200 2.998 0.153 0.140 0.694
2010.8836 43.86 -79.38 0.079 0.156 1.374 0.143 0.130 0.651
2010.9110 43.86 -79.38 0.182 -0.055 0.283 0.155 0.142 0.704
2010.9384 43.86 -79.38 0.073 -0.086 -0.565 0.161 0.147 0.729
2010.9658 43.86 -79.38 0.547 -0.202 -0.615 0.176 0.161 0.796
2010.9932 43.86 -79.38 0.271 -0.126 -0.520 0.159 0.107 0.664
2011.1027 43.86 -79.38 0.495 0.151 -0.032 0.153 0.125 0.680
2011.1301 43.86 -79.38 0.469 0.939 -1.594 0.211 0.192 0.951
2011.1575 43.86 -79.38 0.409 0.119 1.857 0.145 0.129 0.656
2011.1849 43.86 -79.38 0.386 -0.113 -2.841 0.118 0.103 0.538
2011.2123 43.86 -79.38 0.549 -0.017 -3.337 0.179 0.164 0.812
2011.2397 43.86 -79.38 0.527 0.009 -2.167 0.185 0.170 0.840
2011.2671 43.86 -79.38 0.439 -0.024 -2.071 0.152 0.138 0.691
2011.2945 43.86 -79.38 0.632 -0.609 -3.323 0.175 0.161 0.792
2011.3219 43.86 -79.38 0.285 -0.517 -2.974 0.164 0.151 0.745
2011.3493 43.86 -79.38 0.434 -0.492 -2.575 0.149 0.136 0.677
2011.3767 43.86 -79.38 0.502 -0.554 -3.479 0.172 0.158 0.780
2011.4041 43.86 -79.38 0.280 -0.982 -5.067 0.154 0.140 0.698
2011.4315 43.86 -79.38 0.566 -0.532 -4.028 0.165 0.136 0.728
2011.5137 43.86 -79.38 0.582 -0.867 -2.018 0.147 0.128 0.661
2011.5411 43.86 -79.38 0.199 -0.709 -0.202 0.151 0.137 0.686
2011.5685 43.86 -79.38 0.351 -0.579 1.002 0.149 0.133 0.676
2011.5959 43.86 -79.38 0.267 -0.789 -0.458 0.158 0.143 0.718
2011.6233 43.86 -79.38 0.015 -0.686 0.965 0.160 0.143 0.722
2011.6507 43.86 -79.38 0.045 -0.394 0.631 0.184 0.168 0.833
2011.6781 43.86 -79.38 -0.031 0.104 -2.320 0.171 0.156 0.775
2011.7055 43.86 -79.38 -0.119 0.462 0.121 0.171 0.156 0.774
2011.7329 43.86 -79.38 -0.206 0.361 1.020 0.196 0.181 0.886
2011.7603 43.86 -79.38 -0.299 0.685 -1.363 0.169 0.155 0.767
2011.7877 43.86 -79.38 -0.275 0.153 1.760 0.179 0.165 0.813
2011.8151 43.86 -79.38 -0.015 0.105 -0.534 0.177 0.162 0.799
2011.8425 43.86 -79.38 -0.100 0.145 -0.697 0.190 0.175 0.858
2011.8699 43.86 -79.38 -0.096 -0.156 -0.146 0.188 0.164 0.838
2011.9521 43.86 -79.38 0.092 0.103 -4.299 0.137 0.100 0.587
2011.9795 43.86 -79.38 -0.011 0.257 -5.269 0.156 0.138 0.698
2012.0068 43.86 -79.38 0.081 0.114 -2.682 0.146 0.128 0.653
2012.0342 43.86 -79.38 0.026 0.281 -2.899 0.174 0.151 0.771
2012.0616 43.86 -79.38 0.190 -0.025 -2.063 0.153 0.132 0.677
2012.0890 43.86 -79.38 0.244 0.052 -2.227 0.152 0.129 0.669
2012.1164 43.86 -79.38 0.110 -0.185 -4.078 0.150 0.125 0.658
2012.1438 43.86 -79.38 0.644 -0.033 -1.578 0.155 0.129 0.678
2012.1712 43.86 -79.38 0.343 -0.234 -1.809 0.150 0.122 0.655
2012.1986 43.86 -79.38 0.468 -0.239 -1.864 0.137 0.110 0.595
2012.2260 43.86 -79.38 0.557 -0.340 -1.268 0.138 0.111 0.601
2012.2534 43.86 -79.38 0.811 -0.094 -3.087 0.134 0.108 0.583
2012.2808 43.86 -79.38 0.800 -0.313 -0.774 0.125 0.100 0.544
2012.3082 43.86 -79.38 1.127 -0.258 -0.358 0.162 0.107 0.670
2012.3904 43.86 -79.38 0.854 -0.068 1.221 0.160 0.123 0.692
2012.4178 43.86 -79.38 0.961 -0.321 -0.876 0.116 0.091 0.503
2012.4452 43.86 -79.38 0.605 -0.302 -0.858 0.115 0.090 0.500
2012.4726 43.86 -79.38 0.548 -0.133 0.176 0.124 0.098 0.535
2012.5000 43.86 -79.38 0.689 -0.198 0.988 0.118 0.093 0.513
2012.5274 43.86 -79.38 0.459 0.050 1.713 0.125 0.099 0.541
2012.5548 43.86 -79.38 0.209 -0.106 2.419 0.124 0.099 0.541
2012.5822 43.86 -79.38 0.092 0.078 1.734 0.131 0.106 0.568
2012.6096 43.86 -79.38 0.300 0.246 3.046 0.128 0.106 0.562
2012.6370 43.86 -79.38 0.247 0.186 3.086 0.119 0.098 0.522
2012.6644 43.86 -79.38 0.164 0.310 4.034 0.129 0.108 0.567
2012.6918 43.86 -79.38 -0.055 0.059 3.504 0.132 0.112 0.583
2012.7192 43.86 -79.38 -0.023 0.551 5.162 0.155 0.137 0.693
2012.7466 43.86 -79.38 0.354 0.264 4.396 0.127 0.091 0.539
2012.8562 43.86 -79.38 0.258 0.867 1.988 0.163 0.143 0.727
2012.8836 43.86 -79.38 0.365 0.928 2.381 0.150 0.137 0.679
2012.9110 43.86 -79.38 0.477 0.892 3.434 0.142 0.130 0.646
2012.9384 43.86 -79.38 0.237 1.099 1.896 0.140 0.125 0.636
2012.9658 43.86 -79.38 0.529 0.942 3.120 0.152 0.140 0.691
2012.9918 43.86 -79.38 0.225 1.007 -0.782 0.078 0.069 0.361
2013.0178 43.86 -79.38 0.281 0.508 1.156 0.091 0.082 0.416
2013.0452 43.86 -79.38 0.196 1.009 0.088 0.090 0.081 0.415
2013.0726 43.86 -79.38 0.363 0.827 -1.207 0.084 0.075 0.385
2013.1000 43.86 -79.38 0.705 0.483 -1.896 0.086 0.077 0.395
2013.1274 43.86 -79.38 0.950 0.951 -1.342 0.080 0.071 0.371
2013.1548 43.86 -79.38 0.845 0.977 -0.008 0.079 0.065 0.357
2013.2644 43.86 -79.38 0.930 0.257 -1.145 0.100 0.051 0.392
2013.2918 43.86 -79.38 0.879 0.531 -1.096 0.082 0.074 0.379
2013.3192 43.86 -79.38 1.007 0.031 -0.864 0.090 0.082 0.414
2013.3466 43.86 -79.38 0.506 -0.333 -2.991 0.092 0.084 0.424
2013.3740 43.86 -79.38 0.740 -0.386 -2.085 0.080 0.072 0.369
2013.4014 43.86 -79.38 0.787 -0.107 -2.915 0.082 0.074 0.380
2013.4288 43.86 -79.38 0.834 -0.420 -2.506 0.073 0.065 0.341
2013.4562 43.86 -79.38 0.092 -0.565 -3.104 0.075 0.067 0.347
2013.4836 43.86 -79.38 -0.037 0.107 -3.080 0.076 0.068 0.354
2013.5110 43.86 -79.38 -0.162 -0.286 -5.252 0.085 0.077 0.392
2013.5384 43.86 -79.38 0.229 -0.231 -3.465 0.085 0.074 0.389
2013.5658 43.86 -79.38 0.134 -0.053 -3.849 0.087 0.079 0.403
2013.7575 43.86 -79.38 0.290 0.215 0.175 0.085 0.074 0.390
2013.7849 43.86 -79.38 0.574 -0.045 1.324 0.087 0.077 0.399
2013.8123 43.86 -79.38 0.518 0.291 -0.324 0.080 0.070 0.368
2013.8397 43.86 -79.38 0.630 0.337 0.396 0.081 0.071 0.372
2013.8671 43.86 -79.38 0.795 0.350 -1.207 0.087 0.076 0.397
2013.8945 43.86 -79.38 0.596 -0.237 -2.199 0.080 0.071 0.369
2013.9219 43.86 -79.38 0.763 0.271 -2.470 0.072 0.063 0.335
2013.9493 43.86 -79.38 0.496 0.249 -2.826 0.077 0.067 0.353
2013.9767 43.86 -79.38 0.561 0.450 -1.351 0.078 0.068 0.359
2014.0041 43.86 -79.38 0.666 0.779 -2.991 0.075 0.066 0.347
2014.0315 43.86 -79.38 0.687 0.552 -4.528 0.078 0.068 0.358
2014.1685 43.86 -79.38 0.802 0.373 -2.936 0.082 0.072 0.379
2014.1959 43.86 -79.38 0.763 -0.058 -4.062 0.082 0.074 0.378
2014.2233 43.86 -79.38 0.737 0.183 -4.262 0.078 0.070 0.362
2014.2507 43.86 -79.38 0.548 0.209 -3.608 0.072 0.064 0.334
2014.2781 43.86 -79.38 0.719 -0.153 -5.732 0.076 0.068 0.352
2014.3055 43.86 -79.38 0.830 -0.513 -5.325 0.073 0.065 0.339
2014.3329 43.86 -79.38 0.639 -0.469 -4.376 0.061 0.053 0.286
2014.3603 43.86 -79.38 0.808 -0.558 -5.678 0.068 0.060 0.318
2014.3877 43.86 -79.38 0.774 -0.729 -4.979 0.069 0.061 0.319
2014.4151 43.86 -79.38 0.996 -1.294 -4.117 0.068 0.060 0.318
2014.4425 43.86 -79.38 0.961 -0.772 -4.455 0.072 0.064 0.335
2014.4699 43.86 -79.38 1.138 -0.740 -0.720 0.072 0.063 0.334
2014.5795 43.86 -79.38 0.879 -0.341 -2.811 0.067 0.052 0.307
2014.6068 43.86 -79.38 0.618 -0.744 -2.421 0.065 0.056 0.300
2014.6342 43.86 -79.38 0.668 -0.088 -2.162 0.059 0.050 0.277
2014.6616 43.86 -79.38 0.550 -0.797 -2.283 0.065 0.057 0.303
2014.6890 43.86 -79.38 0.877 -0.870 -3.347 0.063 0.055 0.295
2014.7164 43.86 -79.38 1.033 -0.912 -3.137 0.062 0.054 0.290
2014.7438 43.86 -79.38 1.014 -0.861 -2.463 0.067 0.059 0.311
2014.7712 43.86 -79.38 1.402 -0.704 -0.189 0.066 0.058 0.307
2014.7986 43.86 -79.38 1.083 -0.695 -3.207 0.060 0.051 0.279
2014.8260 43.86 -79.38 1.442 -0.676 -2.106 0.060 0.051 0.278
2014.8534 43.86 -79.38 1.219 -0.717 -3.079 0.063 0.054 0.292
2014.8808 43.86 -79.38 1.471 -0.797 -4.317 0.063 0.054 0.293
2014.9082 43.86 -79.38 1.385 -0.621 -4.297 0.064 0.055 0.298
2015.0452 43.86 -79.38 1.314 -0.190 -3.686 0.050 0.040 0.234
2015.0726 43.86 -79.38 1.342 -0.411 -3.825 0.054 0.042 0.248
2015.1000 43.86 -79.38 1.410 -0.580 -4.145 0.048 0.038 0.228
2015.1274 43.86 -79.38 1.167 -0.047 -3.694 0.045 0.036 0.214
2015.1548 43.86 -79.38 1.169 -0.650 -5.591 0.052 0.041 0.240
2015.1822 43.86 -79.38 1.105 -0.708 -3.096 0.049 0.039 0.229
2015.2096 43.86 -79.38 1.196 -0.388 -5.597 0.064 0.052 0.289
2015.2370 43.86 -79.38 1.590 -0.458 -4.014 0.068 0.058 0.312
2015.2644 43.86 -79.38 1.717 -0.279 -2.157 0.060 0.052 0.280
2015.2918 43.86 -79.38 1.488 -0.685 -3.510 0.061 0.052 0.283
2015.3192 43.86 -79.38 1.311 -0.476 -2.660 0.059 0.050 0.274
2015.3466 43.86 -79.38 1.355 -0.781 -0.753 0.063 0.054 0.294
2015.4836 43.86 -79.38 0.834 -0.836 -5.728 0.061 0.046 0.278
2015.5110 43.86 -79.38 0.951 -0.793 -6.875 0.058 0.046 0.268
2015.5384 43.86 -79.38 0.851 -1.188 -3.469 0.063 0.052 0.291
2015.5658 43.86 -79.38 0.836 -0.708 -3.170 0.063 0.053 0.290
2015.5932 43.86 -79.38 0.848 -0.295 -4.430 0.065 0.056 0.299
2015.6205 43.86 -79.38 0.976 -0.439 -3.652 0.063 0.053 0.291
2015.6479 43.86 -79.38 0.780 -0.984 -3.466 0.061 0.052 0.283
2015.6753 43.86 -79.38 0.938 -0.787 -2.800 0.059 0.050 0.275
2015.7027 43.86 -79.38 0.685 -0.543 1.090 0.064 0.055 0.295
2015.7301 43.86 -79.38 0.916 -0.659 0.104 0.064 0.054 0.297
2015.9493 43.86 -79.38 0.992 -0.432 -6.998 0.062 0.054 0.290
2015.9767 43.86 -79.38 1.067 -0.116 -3.183 0.065 0.056 0.299
2016.0041 43.86 -79.38 1.189 -0.705 -5.036 0.059 0.050 0.274
2016.0315 43.86 -79.38 1.216 -0.337 -5.646 0.056 0.048 0.262
2016.0589 43.86 -79.38 1.182 -0.300 -6.958 0.057 0.049 0.268
2016.0863 43.86 -79.38 1.213 -0.994 -3.916 0.052 0.045 0.248
2016.1137 43.86 -79.38 1.196 -0.866 -5.731 0.058 0.050 0.272
2016.1411 43.86 -79.38 1.061 -0.434 -4.804 0.068 0.059 0.313
2016.1685 43.86 -79.38 1.294 -1.327 -1.800 0.073 0.064 0.334
2016.1959 43.86 -79.38 1.452 -0.787 -4.034 0.071 0.064 0.331
2016.2233 43.86 -79.38 1.479 -0.666 -2.664 0.072 0.066 0.335
2016.2507 43.86 -79.38 1.592 -0.326 -4.765 0.061 0.052 0.284
2016.3603 43.86 -79.38 0.997 -0.771 -1.426 0.056 0.049 0.266
2016.3877 43.86 -79.38 1.406 -0.712 -5.613 0.066 0.057 0.305
2016.4151 43.86 -79.38 1.338 -1.046 -2.578 0.065 0.056 0.300
2016.4425 43.86 -79.38 1.117 -1.181 -3.605 0.069 0.060 0.318
2016.4699 43.86 -79.38 0.939 -0.875 -3.407 0.068 0.059 0.312
