2002.5877 43.86 -79.38 25.21026706520715 10.26451815042096
2002.6151 43.86 -79.38 9.08924787728732 9.99537001829428
2002.6425 43.86 -79.38 4.22216704926963 10.21294139763356
2002.6699 43.86 -79.38 -6.84956959203041 8.54399197843458
2002.6973 43.86 -79.38 -39.67157826932028 13.80380012635257
2002.7247 43.86 -79.38 -29.25316919087947 9.73601087079276
2002.7521 43.86 -79.38 -4.82574023618913 8.89661716483734
2002.7795 43.86 -79.38 -37.82316197912762 10.16046755297857
2002.8068 43.86 -79.38 -28.91615123505276 9.24582291393830
2002.8342 43.86 -79.38 -18.64648990543719 9.05302366509478
2002.8616 43.86 -79.38 -43.91972431856598 8.68530473950786
2002.8890 43.86 -79.38 -30.94400961071453 9.21244237803035
2002.9164 43.86 -79.38 -31.55218981076477 9.53428404266286
2003.0260 43.86 -79.38 -12.11649591266387 10.60996055682206
2003.0534 43.86 -79.38 -82.15907848672830 18.64665213859855
2003.0808 43.86 -79.38 -24.26576317478266 15.36874284132876
2003.1082 43.86 -79.38 -24.44936710580737 8.51839204276213
2003.1356 43.86 -79.38 -55.90692071033270 7.83430944538628
2003.1630 43.86 -79.38 -27.90696168156333 8.52818028464159
2003.1904 43.86 -79.38 -17.98539341934024 9.97726025907561
2003.2178 43.86 -79.38 -12.93588463910198 8.40677979849285
2003.2452 43.86 -79.38 -6.88762610187339 8.35417389648475
2003.2726 43.86 -79.38 8.36724921521393 8.12676310388805
2003.3000 43.86 -79.38 -9.14236762723816 7.97407990633651
2003.3274 43.86 -79.38 19.81359466164354 10.71060080433512
2003.3548 43.86 -79.38 4.52531025808087 12.18977393312019
2003.3822 43.86 -79.38 8.08870260147157 10.39003589977196
2003.5192 43.86 -79.38 2.37775679672904 11.90140365160712
2003.5466 43.86 -79.38 9.73534027709766 13.58426086356099
2003.5740 43.86 -79.38 -4.25721031300586 16.27209151921859
2003.6014 43.86 -79.38 7.98076190273934 13.62817660281932
2003.6288 43.86 -79.38 -18.53081655395231 12.53203473560787
2003.6562 43.86 -79.38 -49.06350424784782 13.72437703167269
2003.6836 43.86 -79.38 -33.19361063688504 13.75440908395915
2003.7110 43.86 -79.38 -19.10815812337689 10.15182317368950
2003.7384 43.86 -79.38 -36.53503503704574 12.87769775362075
2003.7658 43.86 -79.38 -41.53952181740034 11.71873794668920
2003.7932 43.86 -79.38 -34.20556427949495 13.33600943563415
2003.8205 43.86 -79.38 -12.69652931726527 14.15796285543782
2003.8479 43.86 -79.38 -36.01516137746538 11.97969228458538
2003.8753 43.86 -79.38 -41.61776446258396 13.18912626258796
2003.9027 43.86 -79.38 -10.05452067275628 11.58924999683378
2003.9301 43.86 -79.38 -19.67726242024473 12.35314708606906
2003.9575 43.86 -79.38 -4.97789033568778 14.35188112090822
2003.9849 43.86 -79.38 -5.40713127713657 13.40930555118907
2004.0123 43.86 -79.38 -23.81667486931615 14.40116747232136
2004.0397 43.86 -79.38 -5.59440509118823 11.05519580478120
2004.0945 43.86 -79.38 6.51408741308635 10.29693475148630
2004.1219 43.86 -79.38 1.69975709510456 11.82660154190506
2004.1493 43.86 -79.38 -28.90448594475765 14.09050191435784
2004.1767 43.86 -79.38 22.61558920155209 15.48071328901505
2004.2041 43.86 -79.38 7.53619078881492 12.16162717584906
2004.2315 43.86 -79.38 -6.76100779867622 12.35176795010582
2004.2589 43.86 -79.38 -22.45689727547780 12.71406528062657
2004.2863 43.86 -79.38 14.24325563217043 12.78865121301012
2004.3137 43.86 -79.38 19.42604760859635 12.08235176857879
2004.3411 43.86 -79.38 27.61911068432629 13.39805401435046
2004.3685 43.86 -79.38 19.40527950151959 12.64346031847558
2004.3959 43.86 -79.38 33.31151599374961 10.89977801323850
2004.4233 43.86 -79.38 60.71514740817965 10.43172157977476
2004.4507 43.86 -79.38 32.63636476323990 9.33130959284354
2004.4781 43.86 -79.38 29.77774123533596 10.37566483245801
2004.5055 43.86 -79.38 25.26596516229078 10.06633035584613
2004.5329 43.86 -79.38 24.39461601502799 9.41310398727459
2004.5603 43.86 -79.38 15.55244187540982 9.76966808369689
2004.5877 43.86 -79.38 18.08138223993014 9.80616355208722
2004.6151 43.86 -79.38 8.79404101409030 10.86425070340643
2004.6425 43.86 -79.38 21.01062498960033 9.06482063122707
2004.6699 43.86 -79.38 10.35456040091781 9.04582725820099
2004.6973 43.86 -79.38 20.68575286017956 8.40474532658544
2004.7247 43.86 -79.38 2.07689956817979 9.81747241769025
2004.7521 43.86 -79.38 -12.57100320565839 9.31645947930226
2004.7795 43.86 -79.38 -26.99021785952451 9.15034491987000
2004.8068 43.86 -79.38 -24.69965735709641 10.32180513087281
2004.8342 43.86 -79.38 -37.27581031013873 10.20994183458267
2004.8616 43.86 -79.38 -41.64936478811290 8.79985881728946
2004.8890 43.86 -79.38 -31.03324123891895 8.83439800580249
2004.9164 43.86 -79.38 -26.38553112571788 9.79953221546510
2004.9438 43.86 -79.38 -35.21108303061840 10.58831380478001
2004.9712 43.86 -79.38 19.37363955893309 9.93901989767527
2004.9973 43.86 -79.38 1.53297057278735 9.42782289808532
2005.0233 43.86 -79.38 23.84005599390285 11.35124611133924
2005.0507 43.86 -79.38 8.64549771274017 17.73339214572292
2005.0781 43.86 -79.38 11.57122628617495 12.96433512965459
2005.1055 43.86 -79.38 42.78225354412900 12.81813724640378
2005.1329 43.86 -79.38 7.37043239877957 13.14850306578293
2005.1603 43.86 -79.38 16.90103997543081 11.45029301778111
2005.1877 43.86 -79.38 28.32139336530936 11.32793412336977
2005.2151 43.86 -79.38 19.36490486260848 10.44215499345638
2005.2425 43.86 -79.38 -1.00658253727664 10.25476707182159
2005.2699 43.86 -79.38 17.44216694152896 11.06978834389214
2005.2973 43.86 -79.38 16.44738876139386 11.77762053218471
2005.3247 43.86 -79.38 45.03461347211361 12.44092041943604
2005.3521 43.86 -79.38 37.72079308227966 4.42606569697473
2005.3795 43.86 -79.38 23.36910268376653 11.54986590059454
2005.4068 43.86 -79.38 23.86901155835723 10.39970287513000
2005.4342 43.86 -79.38 15.79238057557089 11.91768618819142
2005.4616 43.86 -79.38 16.02921079681675 10.92959166749175
2005.4890 43.86 -79.38 -1.00784251302662 10.34740505909705
2005.5164 43.86 -79.38 21.99687709978867 10.27779914124326
2005.5438 43.86 -79.38 9.76683415881159 11.36965660761616
2005.5712 43.86 -79.38 -7.04364812085763 12.53710885019355
2005.5986 43.86 -79.38 -3.61170728937623 12.82999086437402
2005.6260 43.86 -79.38 -15.17521627080258 11.17672302973935
2005.6534 43.86 -79.38 -33.22481790948148 11.95254385465687
2005.6808 43.86 -79.38 9.48401010866782 11.66100496473534
2005.7082 43.86 -79.38 -23.70646455074299 14.57393730326875
2005.7356 43.86 -79.38 -32.44465404781446 12.62596156425123
2005.7630 43.86 -79.38 -28.18953892606884 12.64361329926247
2005.7904 43.86 -79.38 -21.09748347591578 11.66807847510703
2005.8178 43.86 -79.38 -16.21579362424276 12.09160822215214
2005.8452 43.86 -79.38 -1.59532470847919 12.92402596577347
2005.8726 43.86 -79.38 -32.15750999511225 11.11332219022137
2005.9000 43.86 -79.38 -28.76642637102893 10.74230246528457
2005.9274 43.86 -79.38 -11.57295716495196 10.56853563225005
2005.9548 43.86 -79.38 -31.90829455505715 9.06115811454708
2005.9822 43.86 -79.38 -22.34893595805377 9.82397294881930
2006.0096 43.86 -79.38 -29.90581535123840 11.27916765519972
2006.0370 43.86 -79.38 -24.58622476570281 14.60378480675471
2006.0644 43.86 -79.38 -4.50180504075886 14.75388149840010
2006.0918 43.86 -79.38 -10.40070346881858 14.87454730938447
2006.1192 43.86 -79.38 5.04211216987293 17.39541037606503
2006.1466 43.86 -79.38 -11.92364852140839 13.23496729398602
2006.1740 43.86 -79.38 -9.70919861506102 15.45514947880512
2006.2014 43.86 -79.38 5.78009768606367 11.45916442320063
2006.2288 43.86 -79.38 -17.10512153917454 15.54652011709631
2006.2562 43.86 -79.38 -17.43549544519283 14.69716818778143
2006.2836 43.86 -79.38 -8.19502383527714 14.22807260322715
2006.3110 43.86 -79.38 1.17818301307129 15.29392235366951
2006.3384 43.86 -79.38 -32.36419681031056 13.78446879730748
2006.3658 43.86 -79.38 -65.54249168418285 15.39862226070265
2006.3932 43.86 -79.38 -21.73142855437402 15.06048749325958
2006.4205 43.86 -79.38 27.80009197572281 15.00154112320306
2006.4479 43.86 -79.38 -0.98138603559505 15.98744316951947
2006.4753 43.86 -79.38 23.79395178419428 16.64412787226251
2006.5027 43.86 -79.38 3.36167051678554 17.40409649017414
2006.5301 43.86 -79.38 14.63663175916840 21.19116984760576
2006.5575 43.86 -79.38 6.29048657850480 16.48767325831815
2006.5849 43.86 -79.38 24.12616273331933 17.01347782661560
2006.6123 43.86 -79.38 7.29315375306122 21.94714221308246
2006.6397 43.86 -79.38 3.44283831881122 18.16238204143541
2006.6671 43.86 -79.38 4.42993032057524 16.14513886347358
2006.6945 43.86 -79.38 -22.05733243386837 21.24704247388860
2006.7219 43.86 -79.38 -27.07507922532033 19.24870067742184
2006.7493 43.86 -79.38 -29.78365097298789 23.52156977250079
2006.7767 43.86 -79.38 2.19715425964802 20.46372900889204
2006.8041 43.86 -79.38 -16.54865639811643 16.04505863310466
2006.8315 43.86 -79.38 -0.74586280284655 19.13016974086826
2006.8589 43.86 -79.38 -10.76328280604390 18.43744224140686
2006.8863 43.86 -79.38 -1.29903209380346 17.45901269653788
2006.9137 43.86 -79.38 3.72642147369967 16.73154661031181
2006.9411 43.86 -79.38 -1.84202169587688 16.35087564375331
2006.9685 43.86 -79.38 0.85495393670291 15.96972146301702
2006.9959 43.86 -79.38 -12.25445215004809 15.49448531611815
2007.0233 43.86 -79.38 5.45990830300462 14.07699635334187
2007.0507 43.86 -79.38 -4.33033737863951 14.98435972907492
2007.0781 43.86 -79.38 -17.00745935451841 15.97622796493278
2007.1055 43.86 -79.38 1.55591529613160 14.02764546285009
2007.1329 43.86 -79.38 -4.26180594274166 15.49724342969176
2007.1603 43.86 -79.38 4.10084874864605 14.74467981162054
2007.1877 43.86 -79.38 -5.84481227245629 20.12603685683025
2007.2151 43.86 -79.38 -0.24567988998595 17.76078104009768
2007.2425 43.86 -79.38 -12.09248203156417 16.99409099887083
2007.2699 43.86 -79.38 9.54465394495122 12.74387978590388
2007.2973 43.86 -79.38 12.79098480521714 11.94979886708264
2007.3247 43.86 -79.38 -1.77478817890071 15.31362871815403
2007.3521 43.86 -79.38 19.77169636854726 17.04569377150806
2007.3795 43.86 -79.38 20.30883591815822 18.07913587940625
2007.4068 43.86 -79.38 27.79121822860199 14.53357079098922
2007.4342 43.86 -79.38 16.29618671095198 13.72899692612990
2007.4616 43.86 -79.38 -4.78492986367262 19.08223008363939
2007.4890 43.86 -79.38 3.03650690057410 13.76527143533237
2007.5164 43.86 -79.38 -18.47407862718996 14.80013267137440
2007.5438 43.86 -79.38 -21.88818288260628 14.20518672783391
2007.5712 43.86 -79.38 -5.47760073470416 14.60444030523183
2007.5986 43.86 -79.38 -11.00781927820555 18.37812085780986
2007.6260 43.86 -79.38 -21.74060376564881 14.48392337630914
2007.6534 43.86 -79.38 -37.95456792019635 14.79700248543706
2007.6808 43.86 -79.38 -35.09706972755429 15.46216270096210
2007.7082 43.86 -79.38 -46.52674429903073 10.64929575945954
2007.7356 43.86 -79.38 -27.34187087253481 15.88183843158155
2007.7630 43.86 -79.38 -53.63949163040517 11.40196150166550
2007.7904 43.86 -79.38 -65.44070819189329 15.82250477932621
2007.8178 43.86 -79.38 -35.15425488333369 18.65386468121388
2007.8452 43.86 -79.38 -61.99863633005577 14.49386618801852
2007.8726 43.86 -79.38 -71.77684133532470 17.15762374942462
2007.9000 43.86 -79.38 -62.78182247153223 18.08240898850776
2007.9274 43.86 -79.38 -47.85316669878402 17.95886262955771
2007.9548 43.86 -79.38 -34.40731999430788 13.12454385611019
2007.9822 43.86 -79.38 -17.40874822230604 16.58110421224555
2008.0096 43.86 -79.38 -28.71259061669359 14.43508546725945
2008.0370 43.86 -79.38 -11.63502856692239 15.09360337901739
2008.0644 43.86 -79.38 -21.24354958793547 17.79614019303186
2008.0918 43.86 -79.38 -14.60134329917035 13.46965238285531
2008.1192 43.86 -79.38 -7.47940544030666 16.42696152797046
2008.1466 43.86 -79.38 12.18664862477270 19.43387315056716
2008.1740 43.86 -79.38 7.46787957259650 16.75756320947903
2008.2014 43.86 -79.38 15.09772995032123 18.45830082227967
2008.2288 43.86 -79.38 43.67106221623047 20.46245487070158
2008.2562 43.86 -79.38 -0.30678358889835 19.40861656890638
2008.2836 43.86 -79.38 13.06464395356838 23.40102668933534
2008.3110 43.86 -79.38 -10.14313585861330 24.48253440822601
2008.3384 43.86 -79.38 23.93640391215018 17.96777323941753
2008.3658 43.86 -79.38 25.99577623909198 18.16730712519356
2008.3932 43.86 -79.38 25.88630641561002 16.12087766796494
2008.4205 43.86 -79.38 -1.32652015591355 14.08733289661597
2008.4479 43.86 -79.38 11.29678371993760 14.58081409773645
2008.4753 43.86 -79.38 25.33448670828032 13.98320651592751
2008.5027 43.86 -79.38 30.41263438546653 17.31022311207520
2008.5301 43.86 -79.38 28.01597840871182 21.41474968209656
2008.5575 43.86 -79.38 16.01667149996896 13.47626730697694
2008.5849 43.86 -79.38 18.18085905075510 16.05642699225482
2008.6123 43.86 -79.38 28.92220907693819 12.78806497487698
2008.6397 43.86 -79.38 20.40414123815273 14.28465303389125
2008.6671 43.86 -79.38 -11.80423000301468 13.56756568157371
2008.6945 43.86 -79.38 -15.72411516576868 13.05432976076873
2008.7219 43.86 -79.38 -10.82888708354204 15.51808202955800
2008.7493 43.86 -79.38 -18.39022174448517 13.87905424422562
2008.7767 43.86 -79.38 -8.86996267194612 16.69505037179274
2008.8041 43.86 -79.38 -10.51953637954649 16.85822754715702
2008.8315 43.86 -79.38 5.46808929851172 18.89393439634931
2008.8589 43.86 -79.38 -12.17892922311161 22.11032016934100
2008.8863 43.86 -79.38 -15.25057944786289 21.20442592880381
2008.9137 43.86 -79.38 4.97030796534820 20.28916884824072
2008.9411 43.86 -79.38 9.91677236903505 20.89350466383983
2008.9685 43.86 -79.38 8.39593967386794 19.48749370352439
2008.9945 43.86 -79.38 23.00140108324783 16.53350755869462
2009.0205 43.86 -79.38 13.79506104855566 16.43707175377620
2009.0479 43.86 -79.38 14.31112317160711 16.44177954274700
2009.0753 43.86 -79.38 22.77642283599448 15.47895746989386
2009.1027 43.86 -79.38 29.25373923781092 19.70503057718758
2009.1301 43.86 -79.38 17.76690748055779 15.33683803533362
2009.1575 43.86 -79.38 12.15228829935339 15.47893309571825
2009.1849 43.86 -79.38 13.85897171520383 18.54386342182662
2009.2123 43.86 -79.38 -3.69606359890111 15.16886414279856
2009.2397 43.86 -79.38 12.81026079003949 17.74999211417885
2009.2671 43.86 -79.38 27.45304736956813 14.66491632631292
2009.2945 43.86 -79.38 3.17208749929205 15.11830839569295
2009.3219 43.86 -79.38 4.78095037580014 15.73116755849074
2009.3493 43.86 -79.38 31.03230360108847 14.28977996600412
2009.3767 43.86 -79.38 16.04829884031635 15.05386701431020
2009.4041 43.86 -79.38 23.46012254349196 12.95954817879428
2009.4315 43.86 -79.38 0.24129869801434 15.34655726230949
2009.4589 43.86 -79.38 6.38031778655314 12.54477686590019
2009.4863 43.86 -79.38 19.76973733242030 13.96123837186229
2009.5137 43.86 -79.38 23.57098582006445 13.06413915745909
2009.5411 43.86 -79.38 30.62691252318853 16.40330035492968
2009.5685 43.86 -79.38 21.06506648718896 17.60901659442365
2009.5959 43.86 -79.38 28.27847022604630 15.25104166307326
2009.6233 43.86 -79.38 42.57867109797978 16.22068998898019
2009.6507 43.86 -79.38 6.33256394727606 15.65544387012610
2009.6781 43.86 -79.38 3.32507304776666 16.97362240535702
2009.7055 43.86 -79.38 -23.61769340687651 17.85807735541534
2009.7329 43.86 -79.38 -20.35880162266064 17.02955274018872
2009.7603 43.86 -79.38 -0.44128595535982 19.50433582620780
2009.7877 43.86 -79.38 -32.25084893430360 17.93740975535828
2009.8151 43.86 -79.38 -22.86290343449502 19.50419394138768
2009.8425 43.86 -79.38 -15.76518267834125 17.54501144040204
2009.8699 43.86 -79.38 -38.63991014924097 16.66660474864215
2009.8973 43.86 -79.38 -31.60155913662027 15.49186239858876
2009.9247 43.86 -79.38 -27.94351290530188 14.99007802104922
2009.9521 43.86 -79.38 -6.08352688833317 14.22821663199144
2009.9795 43.86 -79.38 -4.70446402670774 14.63627580220683
2010.0068 43.86 -79.38 -20.41692321328742 19.15551588040719
2010.0342 43.86 -79.38 -16.12357568447808 14.46029541592160
2010.0616 43.86 -79.38 -18.35817048163073 14.94260291230959
2010.0890 43.86 -79.38 -0.23484380282430 18.41158050562121
2010.1164 43.86 -79.38 -14.23528804081545 19.03530256068119
2010.1438 43.86 -79.38 7.05309528382608 17.98055796015591
2010.1712 43.86 -79.38 -5.95416113482493 17.13571736899531
2010.1986 43.86 -79.38 25.81625485647958 16.39649410155111
2010.2260 43.86 -79.38 12.36027403271609 18.02264459630558
2010.2534 43.86 -79.38 -8.07596570569961 18.49896932201995
2010.2808 43.86 -79.38 -22.25374534098126 13.87846081167995
2010.3082 43.86 -79.38 -32.29296933087591 14.70347865799103
2010.3356 43.86 -79.38 -20.93038627106451 12.96568576185322
2010.3630 43.86 -79.38 -9.40777159019509 13.91896339247048
2010.3904 43.86 -79.38 -12.87906906806553 14.00934742849703
2010.4178 43.86 -79.38 -6.33405761341505 14.90675791886577
2010.4452 43.86 -79.38 0.56802005227811 12.93816063727647
2010.4726 43.86 -79.38 14.40313197657164 11.46086278789691
2010.5000 43.86 -79.38 21.26490225121817 13.29872846814285
2010.5274 43.86 -79.38 -9.32745255942108 22.36688160479507
2010.5548 43.86 -79.38 26.85043158760686 13.80394649735528
2010.5822 43.86 -79.38 -3.81074371239256 12.32990962471447
2010.6096 43.86 -79.38 19.81576106072853 16.57088449354694
2010.6370 43.86 -79.38 -4.71871694919962 14.53587728919526
2010.6644 43.86 -79.38 5.87911395272485 13.48445612965435
2010.6918 43.86 -79.38 8.02137986259618 16.69067329704289
2010.7192 43.86 -79.38 -12.01048558841800 15.46077732970415
2010.7466 43.86 -79.38 -35.25891105892872 18.33773690329150
2010.7740 43.86 -79.38 -11.53042866733601 14.25071927254635
2010.8014 43.86 -79.38 -42.22143782425411 13.66942530561455
2010.8288 43.86 -79.38 -25.92416170479531 15.91224424191168
2010.8562 43.86 -79.38 -46.94777438719141 15.53254793759722
2010.8836 43.86 -79.38 -31.74621361293717 14.11544900047456
2010.9110 43.86 -79.38 -28.82118600390393 15.74027609835313
2010.9384 43.86 -79.38 -13.77539621608117 16.43454819872392
2010.9658 43.86 -79.38 -11.43434369612519 18.26162780750747
2010.9932 43.86 -79.38 -10.61700741458017 13.17174290556361
2011.1027 43.86 -79.38 -15.56031588198960 13.20250145681932
2011.1301 43.86 -79.38 -14.78375989654748 21.68661507850397
2011.1575 43.86 -79.38 -35.36278405103765 13.88391445946042
2011.1849 43.86 -79.38 19.07915362868732 10.59728094837920
2011.2123 43.86 -79.38 19.56308141527513 18.39965969069059
2011.2397 43.86 -79.38 18.65629292235204 19.34899011908064
2011.2671 43.86 -79.38 24.01849937617891 15.25448528103529
2011.2945 43.86 -79.38 12.55178206805364 18.17221276333516
2011.3219 43.86 -79.38 23.38894870016986 16.94709970290875
2011.3493 43.86 -79.38 29.27029619005472 14.92165919747978
2011.3767 43.86 -79.38 26.73962984927201 17.83794980132697
2011.4041 43.86 -79.38 39.71517714323418 15.34174734649453
2011.4315 43.86 -79.38 34.75381478739907 15.02551240813473
2011.5137 43.86 -79.38 18.61923108644041 13.73700455689630
2011.5411 43.86 -79.38 0.19539080553202 14.94623425345872
2011.5685 43.86 -79.38 4.64678555560758 14.41881205346425
2011.5959 43.86 -79.38 19.87087358322499 15.65464165607769
2011.6233 43.86 -79.38 6.86863999565546 15.50591426643493
2011.6507 43.86 -79.38 3.60345478717810 18.98693334857227
2011.6781 43.86 -79.38 26.64285100014342 17.59808938118131
2011.7055 43.86 -79.38 3.59689252307546 17.69707594313265
2011.7329 43.86 -79.38 -12.04699234321251 20.80989533090270
2011.7603 43.86 -79.38 5.99352642556621 17.62586745802763
2011.7877 43.86 -79.38 -8.90530664712693 18.89886894412393
2011.8151 43.86 -79.38 18.14790197614543 18.44346646444460
2011.8425 43.86 -79.38 -0.31338935302707 20.27894558601683
2011.8699 43.86 -79.38 -11.41940598773960 18.72582563466306
2011.9521 43.86 -79.38 14.91119110829414 11.45931345707642
2011.9795 43.86 -79.38 51.47383527006441 15.90138937711505
2012.0068 43.86 -79.38 22.01645807731097 14.62902861132839
2012.0342 43.86 -79.38 21.06736491980161 17.70599528593215
2012.0616 43.86 -79.38 6.81239830134458 15.30013358700451
2012.0890 43.86 -79.38 -3.31887520634656 15.02257974969633
2012.1164 43.86 -79.38 21.02054807827977 14.58247283047337
2012.1438 43.86 -79.38 -5.89432998281135 15.11157894038378
2012.1712 43.86 -79.38 4.72638103698555 14.20444121929373
2012.1986 43.86 -79.38 -7.02131555966685 12.73176647022829
2012.2260 43.86 -79.38 3.15466780130923 13.19666983663206
2012.2534 43.86 -79.38 24.53755144127409 12.80003027648640
2012.2808 43.86 -79.38 -6.38579206215998 11.86579533447705
2012.3082 43.86 -79.38 -4.31964974036055 13.57234738320388
2012.3904 43.86 -79.38 1.86609478979090 13.94933682831217
2012.4178 43.86 -79.38 4.13213387592296 10.75430316313625
2012.4452 43.86 -79.38 22.83543751110776 10.56587288397380
2012.4726 43.86 -79.38 5.00459615746269 11.53799754994074
2012.5000 43.86 -79.38 0.43980351880609 10.86053172674176
2012.5274 43.86 -79.38 -1.67750843081180 11.66179178703210
2012.5548 43.86 -79.38 -10.13704710545498 11.66027175615753
2012.5822 43.86 -79.38 -1.15542553994317 12.50365908329590
2012.6096 43.86 -79.38 -26.23514339867938 12.48981290120475
2012.6370 43.86 -79.38 -23.35737452578889 11.38863542450590
2012.6644 43.86 -79.38 -26.29534696270457 12.62218376108813
2012.6918 43.86 -79.38 -27.18200061719417 13.08164971770171
2012.7192 43.86 -79.38 -36.12770069348825 16.18149531034914
2012.7466 43.86 -79.38 -29.36571546080002 10.61778315524136
2012.8562 43.86 -79.38 -16.50952960289325 16.61156358093413
2012.8836 43.86 -79.38 -24.58863839149175 15.70135259465479
2012.9110 43.86 -79.38 -40.36487642123557 14.81216487810054
2012.9384 43.86 -79.38 -16.02979153550924 13.92356854028610
2012.9658 43.86 -79.38 -30.48224278523623 16.14775194122009
2012.9918 43.86 -79.38 7.00577531243636 7.48276880765897
2013.0178 43.86 -79.38 -12.50300462314916 9.06501286769607
2013.0452 43.86 -79.38 15.34405929055782 8.97343394867927
2013.0726 43.86 -79.38 22.27133001602782 8.17702290629998
2013.1000 43.86 -79.38 20.02466615063079 8.41916742538831
2013.1274 43.86 -79.38 -0.39688704204989 7.68819455016474
2013.1548 43.86 -79.38 -2.04434622715267 6.91195239381394
2013.2644 43.86 -79.38 1.47025086273135 7.93835974957484
2013.2918 43.86 -79.38 13.40408775058672 7.96661027503593
2013.3192 43.86 -79.38 -10.44958821752770 8.96052724237287
2013.3466 43.86 -79.38 18.08068527480813 9.23802909872838
2013.3740 43.86 -79.38 17.91450795789467 7.74265213957982
2013.4014 43.86 -79.38 26.30811302125166 8.04018091915722
2013.4288 43.86 -79.38 23.34895845047373 6.89732654263937
2013.4562 43.86 -79.38 14.55795627984507 7.01469194489834
2013.4836 43.86 -79.38 29.73914880146232 7.26071017905387
2013.5110 43.86 -79.38 56.46153064442371 8.36431743695992
2013.5384 43.86 -79.38 28.69243123964741 8.01399483443863
2013.5658 43.86 -79.38 44.41026198184796 8.52155787525444
2013.7575 43.86 -79.38 -20.31894833635197 7.93156893905338
2013.7849 43.86 -79.38 -28.15259301754208 8.34061345710808
2013.8123 43.86 -79.38 -14.14080375941664 7.57494692133272
2013.8397 43.86 -79.38 -18.52520608903200 7.71481476818644
2013.8671 43.86 -79.38 2.68383176534713 8.22998036401455
2013.8945 43.86 -79.38 14.16173295783511 7.69482873318789
2013.9219 43.86 -79.38 15.97422777359387 6.67062009246377
2013.9493 43.86 -79.38 12.94887029464586 7.25946866749229
2013.9767 43.86 -79.38 -2.75376719728602 7.21558962856066
2014.0041 43.86 -79.38 17.33058031293814 6.99779750352041
2014.0315 43.86 -79.38 29.21346693221553 7.40885023161555
2014.1685 43.86 -79.38 15.55237361995934 7.69821915152657
2014.1959 43.86 -79.38 34.39092615184789 8.10866921213761
2014.2233 43.86 -79.38 29.04376947156971 7.59080649211228
2014.2507 43.86 -79.38 17.22118586126001 6.84689119950025
2014.2781 43.86 -79.38 50.12870251964941 7.31865299974684
2014.3055 43.86 -79.38 47.94188696596103 6.96201159269306
2014.3329 43.86 -79.38 13.40349612183358 5.48729391899986
2014.3603 43.86 -79.38 59.23362885681455 6.44074413785552
2014.3877 43.86 -79.38 36.86357263382775 6.45969541639768
2014.4151 43.86 -79.38 36.05862352603277 6.37882121468471
2014.4425 43.86 -79.38 33.70456519476160 6.84785663404140
2014.4699 43.86 -79.38 -26.80532868241804 6.71855831673530
2014.5795 43.86 -79.38 9.90899496768711 5.33997834061006
2014.6068 43.86 -79.38 4.57516456033429 5.88681119513674
2014.6342 43.86 -79.38 -3.65261603972921 5.18670460182774
2014.6616 43.86 -79.38 4.50114717893306 6.00156908867664
2014.6890 43.86 -79.38 6.40709745173113 5.83896127068369
2014.7164 43.86 -79.38 6.93747097212101 5.69659986830152
2014.7438 43.86 -79.38 19.76640709735412 6.32943555429576
2014.7712 43.86 -79.38 -12.42702014937812 6.25347776926933
2014.7986 43.86 -79.38 9.75138165262131 5.37480709197397
2014.8260 43.86 -79.38 -0.31443051474784 5.32665301377598
2014.8534 43.86 -79.38 -5.55673063866014 5.69379643901504
2014.8808 43.86 -79.38 1.20937430821090 5.70804630087337
2014.9082 43.86 -79.38 1.03735386989224 5.84157797754328
2015.0452 43.86 -79.38 -6.77636831351479 4.07317912868351
2015.0726 43.86 -79.38 -6.85371354131947 4.67844827270874
2015.1000 43.86 -79.38 -8.10184188899646 3.95524494621991
2015.1274 43.86 -79.38 -1.76621084793644 3.63881627621168
2015.1548 43.86 -79.38 21.00150464815731 4.49394856066762
2015.1822 43.86 -79.38 -4.82612955280103 4.10557914305169
2015.2096 43.86 -79.38 19.18224292498978 5.92075078954097
2015.2370 43.86 -79.38 30.58653914843649 6.51888429376358
2015.2644 43.86 -79.38 -20.38080641658330 5.56133579286230
2015.2918 43.86 -79.38 14.88578159300674 5.47822097732972
2015.3192 43.86 -79.38 13.99727261372542 5.26356936391653
2015.3466 43.86 -79.38 -1.86071117894570 5.81135838443459
2015.4836 43.86 -79.38 29.14781935673242 4.81523228818071
2015.5110 43.86 -79.38 44.33274976995104 4.74159176059138
2015.5384 43.86 -79.38 22.79102089015001 5.41676515492940
2015.5658 43.86 -79.38 38.06006215973013 5.76043065068179
2015.5932 43.86 -79.38 30.45996435167319 6.10195754584382
2015.6205 43.86 -79.38 26.14059915838366 5.74837331830350
2015.6479 43.86 -79.38 22.06398186930107 5.62172844771828
2015.6753 43.86 -79.38 23.11669263345144 5.25913298347674
2015.7027 43.86 -79.38 -15.51807333722634 5.98245195825821
2015.7301 43.86 -79.38 9.14548970008639 5.86338656980369
2015.9493 43.86 -79.38 10.15457131380033 5.58365950542895
2015.9767 43.86 -79.38 -17.72191799566315 6.16698149927935
2016.0041 43.86 -79.38 -1.29515175317992 5.44366866692502
2016.0315 43.86 -79.38 9.68751206155043 5.17140422102331
2016.0589 43.86 -79.38 9.64433613616545 5.28724583045885
2016.0863 43.86 -79.38 -7.06406548661316 4.59946191882989
2016.1137 43.86 -79.38 3.13896903658767 5.41244667794454
2016.1411 43.86 -79.38 18.33711340264886 6.69029056575363
2016.1685 43.86 -79.38 -5.98400583268577 7.38125376675421
2016.1959 43.86 -79.38 41.91565674971933 7.26151681058819
2016.2233 43.86 -79.38 13.79496006070551 7.40392965916344
2016.2507 43.86 -79.38 38.85264747426681 5.54927423847186
2016.3603 43.86 -79.38 7.33122031252432 5.22022424248734
2016.3877 43.86 -79.38 45.30341675299017 6.44378196007639
2016.4151 43.86 -79.38 33.72646779183966 6.24037156298634
2016.4425 43.86 -79.38 45.29299499070048 6.87287758274347
2016.4699 43.86 -79.38 36.27110839541580 6.71850426574430
